,T2M,Rain,Humidity
20150101,26.08,1.82,86.37
20150102,25.22,0.0,81.12
20150103,25.49,0.0,77.72
20150104,25.73,0.01,82.26
20150105,25.46,0.0,84.44
20150106,25.37,0.0,82.25
20150107,24.87,0.0,80.83
20150108,24.99,0.01,81.3
20150109,25.09,0.01,81.28
20150110,24.64,0.01,76.58
20150111,23.7,0.0,76.24
20150112,23.77,0.0,73.31
20150113,23.74,0.0,76.36
20150114,24.11,0.0,76.74
20150115,24.06,0.0,74.15
20150116,24.86,0.01,81.61
20150117,25.44,0.03,81.82
20150118,25.22,0.03,78.41
20150119,24.75,0.1,74.38
20150120,24.51,0.0,76.63
20150121,24.43,0.0,76.1
20150122,24.97,0.02,78.47
20150123,25.93,0.31,78.42
20150124,25.9,0.09,78.78
20150125,25.89,0.02,73.32
20150126,25.42,0.03,75.06
20150127,25.64,0.0,75.22
20150128,25.99,0.02,76.14
20150129,26.43,0.03,74.38
20150130,26.52,0.0,71.78
20150131,26.13,0.0,69.25
20150201,26.02,0.01,72.04
20150202,25.81,0.02,70.69
20150203,26.1,0.09,70.94
20150204,24.93,4.52,79.6
20150205,25.62,1.67,77.26
20150206,25.9,0.03,74.44
20150207,26.3,0.01,72.51
20150208,26.5,0.01,68.58
20150209,26.54,0.09,71.98
20150210,26.41,0.26,73.27
20150211,26.67,0.08,75.72
20150212,27.33,0.03,73.8
20150213,27.43,0.01,73.15
20150214,27.17,0.0,68.49
20150215,26.64,0.0,66.17
20150216,26.63,0.0,63.45
20150217,26.42,0.0,62.27
20150218,26.27,0.0,60.41
20150219,26.49,0.0,59.34
20150220,26.42,0.0,63.19
20150221,26.79,0.0,67.62
20150222,26.84,0.0,65.16
20150223,26.89,0.0,65.99
20150224,27.29,0.24,70.45
20150225,27.89,0.3,70.71
20150226,27.9,6.39,73.03
20150227,28.06,2.13,72.69
20150228,28.25,0.52,71.19
20150301,28.39,0.09,70.3
20150302,28.74,0.07,70.72
20150303,28.91,0.03,65.11
20150304,29.13,0.02,62.17
20150305,29.13,0.05,67.29
20150306,29.29,0.04,68.02
20150307,29.21,0.1,64.79
20150308,28.61,0.02,66.56
20150309,28.75,0.04,66.66
20150310,28.43,0.0,61.87
20150311,27.96,0.0,66.04
20150312,28.84,0.17,66.96
20150313,28.93,0.33,66.82
20150314,28.7,4.27,68.91
20150315,28.69,1.89,72.45
20150316,28.82,3.5,71.11
20150317,28.64,0.51,65.86
20150318,27.64,0.0,61.37
20150319,28.36,0.0,57.28
20150320,28.6,0.0,64.45
20150321,28.97,0.05,64.04
20150322,29.21,0.0,62.86
20150323,29.66,0.0,63.15
20150324,29.69,0.0,66.32
20150325,29.47,0.0,61.5
20150326,29.91,0.02,62.94
20150327,29.9,0.41,64.44
20150328,29.7,1.88,68.17
20150329,30.08,0.83,66.23
20150330,30.16,0.22,64.07
20150331,29.79,1.26,67.28
20150401,29.59,6.84,70.47
20150402,29.56,4.14,71.39
20150403,30.94,0.25,66.1
20150404,31.42,0.41,65.52
20150405,30.66,0.13,68.92
20150406,30.37,0.05,68.52
20150407,29.76,0.22,71.46
20150408,29.41,1.24,66.79
20150409,29.56,0.54,68.54
20150410,30.31,0.27,67.26
20150411,30.35,1.11,66.87
20150412,29.51,5.54,72.22
20150413,29.06,5.36,66.66
20150414,29.12,2.51,64.94
20150415,28.3,34.81,76.53
20150416,28.7,16.45,76.83
20150417,29.17,13.5,71.42
20150418,28.94,6.43,73.83
20150419,29.73,1.14,70.71
20150420,29.12,8.14,74.13
20150421,28.54,9.91,77.54
20150422,28.06,1.95,82.02
20150423,29.08,0.64,76.74
20150424,29.08,2.76,77.58
20150425,28.49,4.6,71.43
20150426,29.34,0.9,66.39
20150427,29.03,1.02,72.19
20150428,29.57,0.26,69.86
20150429,30.27,0.13,66.96
20150430,30.56,0.09,70.07
20150501,29.84,0.07,74.84
20150502,30.02,0.11,73.28
20150503,30.29,0.23,72.04
20150504,30.22,0.54,72.29
20150505,29.8,2.84,70.71
20150506,29.25,4.2,74.61
20150507,28.97,4.43,74.86
20150508,30.04,6.72,68.62
20150509,29.6,8.77,76.32
20150510,29.57,1.87,72.94
20150511,28.52,29.45,71.99
20150512,28.6,22.13,68.67
20150513,27.77,21.06,78.28
20150514,27.92,16.87,81.54
20150515,28.51,17.59,83.74
20150516,28.37,10.52,87.17
20150517,28.24,4.58,87.31
20150518,28.32,2.48,86.47
20150519,28.47,1.3,86.38
20150520,28.76,0.49,83.29
20150521,29.03,0.18,83.41
20150522,28.99,0.04,82.93
20150523,28.41,0.07,81.78
20150524,28.72,0.03,79.86
20150525,28.79,0.02,82.34
20150526,29.06,0.06,81.38
20150527,29.22,2.1,81.36
20150528,28.18,1.53,76.64
20150529,29.21,0.12,77.35
20150530,28.61,6.56,82.81
20150531,28.36,1.27,80.64
20150601,28.68,0.14,77.0
20150602,28.74,12.73,78.89
20150603,29.0,2.7,79.8
20150604,28.8,0.4,80.11
20150605,27.89,4.77,84.61
20150606,29.2,0.25,76.09
20150607,29.05,0.19,80.29
20150608,28.98,0.18,74.49
20150609,28.72,0.06,75.48
20150610,28.81,0.94,79.33
20150611,29.03,1.15,77.3
20150612,28.26,0.04,78.54
20150613,28.77,1.84,76.26
20150614,29.06,0.13,73.52
20150615,29.25,0.27,70.75
20150616,28.38,0.63,70.38
20150617,28.14,0.07,71.96
20150618,28.84,0.46,73.2
20150619,29.03,0.05,74.03
20150620,29.68,0.04,73.0
20150621,29.3,0.11,75.28
20150622,29.56,0.01,74.4
20150623,28.93,0.18,78.23
20150624,29.44,0.05,74.92
20150625,29.02,0.2,77.92
20150626,28.65,0.22,67.58
20150627,28.85,0.92,68.14
20150628,29.56,0.46,71.91
20150629,28.59,0.48,75.09
20150630,29.86,3.7,65.48
20150701,28.96,8.79,78.29
20150702,29.84,0.09,72.02
20150703,29.79,0.11,72.42
20150704,29.73,0.12,73.2
20150705,30.37,0.06,69.32
20150706,30.24,0.0,65.93
20150707,30.13,0.0,65.07
20150708,29.81,0.01,67.64
20150709,30.52,0.02,66.45
20150710,30.44,0.04,67.7
20150711,29.53,0.02,71.33
20150712,30.44,0.03,65.6
20150713,30.61,0.01,63.34
20150714,30.69,0.03,65.92
20150715,29.93,0.27,68.88
20150716,30.72,0.03,64.6
20150717,29.63,0.12,62.3
20150718,30.07,0.03,60.3
20150719,29.45,0.31,62.95
20150720,29.66,0.04,64.27
20150721,29.81,5.4,69.28
20150722,29.6,2.35,69.47
20150723,29.09,0.53,68.73
20150724,29.28,0.03,67.18
20150725,29.49,0.06,66.19
20150726,28.9,0.05,65.81
20150727,29.63,0.06,63.7
20150728,29.64,4.18,64.91
20150729,28.98,2.37,72.41
20150730,29.3,0.01,68.5
20150731,29.45,0.0,66.51
20150801,29.87,0.45,65.94
20150802,30.26,0.43,64.72
20150803,29.88,0.99,66.16
20150804,29.56,0.08,68.73
20150805,29.67,0.04,66.06
20150806,30.7,0.02,61.04
20150807,29.61,0.01,67.13
20150808,30.33,0.02,64.85
20150809,30.46,0.02,65.37
20150810,30.43,1.57,64.03
20150811,30.2,0.13,66.4
20150812,30.5,0.05,63.38
20150813,30.53,0.04,63.6
20150814,31.26,0.27,59.65
20150815,30.59,1.32,64.11
20150816,28.06,19.44,78.6
20150817,29.08,1.8,70.89
20150818,29.32,4.29,70.82
20150819,28.59,2.55,75.07
20150820,29.18,0.1,71.63
20150821,29.33,2.06,71.35
20150822,29.13,3.54,73.16
20150823,29.85,0.31,64.88
20150824,29.36,0.02,64.94
20150825,30.21,0.01,61.8
20150826,29.88,0.01,64.53
20150827,29.65,0.0,67.97
20150828,29.63,0.01,68.3
20150829,30.68,0.06,66.54
20150830,30.67,0.16,63.39
20150831,30.68,0.26,63.69
20150901,30.88,1.29,65.94
20150902,29.9,8.72,70.43
20150903,28.81,7.1,76.36
20150904,28.71,1.03,75.82
20150905,28.71,3.07,74.48
20150906,27.67,1.72,80.24
20150907,27.45,0.41,76.73
20150908,28.65,0.24,68.39
20150909,28.7,0.24,71.32
20150910,28.62,0.43,72.9
20150911,28.51,0.24,75.47
20150912,29.63,0.29,69.36
20150913,29.66,0.07,69.1
20150914,30.57,0.02,62.98
20150915,29.49,0.07,70.21
20150916,30.74,0.23,66.13
20150917,30.24,0.14,63.91
20150918,30.45,0.09,62.25
20150919,29.78,0.04,69.35
20150920,29.58,0.09,70.57
20150921,29.54,0.09,67.09
20150922,30.89,0.02,65.08
20150923,30.07,1.64,68.2
20150924,29.14,0.64,71.93
20150925,29.75,0.36,70.72
20150926,30.27,3.42,69.38
20150927,28.39,25.47,81.72
20150928,28.43,5.95,77.46
20150929,27.2,49.25,84.92
20150930,26.77,20.03,84.65
20151001,27.39,6.7,82.42
20151002,27.63,5.2,81.65
20151003,28.44,2.48,78.0
20151004,27.74,2.57,82.63
20151005,27.63,4.44,82.45
20151006,28.33,3.12,74.62
20151007,28.16,2.36,78.61
20151008,27.85,1.43,80.56
20151009,28.35,0.12,76.61
20151010,28.87,0.92,76.66
20151011,28.77,3.41,78.03
20151012,27.82,5.22,82.22
20151013,27.62,1.22,78.75
20151014,28.32,1.83,75.08
20151015,28.56,0.45,72.16
20151016,28.65,0.01,70.71
20151017,28.45,0.18,75.42
20151018,28.08,7.07,82.87
20151019,28.29,6.95,81.54
20151020,28.3,2.8,78.82
20151021,28.62,0.41,74.2
20151022,28.73,0.07,71.68
20151023,28.97,0.56,69.78
20151024,27.95,11.74,81.02
20151025,27.71,5.92,74.85
20151026,27.76,0.55,71.13
20151027,26.37,6.64,81.45
20151028,27.23,11.62,79.37
20151029,27.33,2.46,77.52
20151030,26.95,17.28,82.98
20151031,26.45,11.41,87.89
20151101,26.83,15.96,85.97
20151102,26.03,19.31,87.96
20151103,26.89,8.23,80.78
20151104,27.38,10.98,81.26
20151105,27.18,11.68,83.6
20151106,26.84,12.31,86.06
20151107,26.87,21.68,87.67
20151108,26.27,18.39,89.16
20151109,26.73,4.48,85.44
20151110,27.63,1.72,83.56
20151111,26.94,3.22,85.51
20151112,27.09,3.38,83.18
20151113,25.74,17.19,88.24
20151114,25.3,13.48,90.48
20151115,25.95,32.32,88.02
20151116,25.78,3.39,87.45
20151117,27.06,3.66,85.97
20151118,26.93,11.7,90.87
20151119,26.96,4.64,87.04
20151120,26.72,8.58,89.57
20151121,26.6,9.67,86.43
20151122,26.79,19.35,89.29
20151123,26.49,7.7,88.01
20151124,26.94,5.07,87.77
20151125,26.26,0.63,83.66
20151126,25.69,0.09,84.2
20151127,25.9,0.86,87.66
20151128,25.63,1.07,87.46
20151129,25.68,25.1,89.97
20151130,25.54,15.4,89.62
20151201,25.75,12.58,91.0
20151202,25.86,10.66,89.67
20151203,25.81,3.6,88.7
20151204,25.63,5.97,92.03
20151205,25.97,12.78,92.75
20151206,26.35,8.9,90.91
20151207,26.3,21.67,92.19
20151208,25.18,13.94,92.72
20151209,25.49,6.4,92.2
20151210,26.27,9.06,91.39
20151211,26.27,5.14,89.88
20151212,26.38,2.47,88.53
20151213,26.74,0.37,84.49
20151214,26.77,2.94,88.09
20151215,26.7,0.59,86.64
20151216,25.28,0.01,83.14
20151217,25.74,1.45,85.51
20151218,26.08,19.33,88.64
20151219,26.3,12.99,86.57
20151220,25.96,3.08,86.52
20151221,25.1,0.04,81.53
20151222,24.93,0.0,81.49
20151223,25.6,0.0,82.15
20151224,25.22,0.01,81.78
20151225,25.25,0.03,79.96
20151226,25.23,0.09,85.2
20151227,25.41,12.61,87.63
20151228,25.06,9.28,89.35
20151229,25.09,4.62,89.16
20151230,25.12,0.5,85.51
20151231,24.99,0.1,82.45
20160101,24.31,0.04,82.49
20160102,24.05,0.04,84.66
20160103,23.6,0.03,83.01
20160104,24.06,0.11,82.98
20160105,24.27,0.1,85.21
20160106,24.68,0.43,85.77
20160107,24.91,0.05,84.36
20160108,24.57,0.02,83.89
20160109,24.53,0.0,83.92
20160110,24.42,0.0,84.84
20160111,24.4,0.0,81.73
20160112,23.96,0.0,80.36
20160113,23.89,0.0,79.93
20160114,23.6,0.0,79.11
20160115,23.48,0.0,78.58
20160116,23.91,0.0,79.87
20160117,24.3,0.0,79.67
20160118,24.41,0.0,79.99
20160119,25.47,0.0,81.1
20160120,25.99,0.03,80.12
20160121,26.42,0.04,81.26
20160122,26.12,0.0,81.93
20160123,25.92,0.01,83.4
20160124,26.49,0.26,83.4
20160125,26.61,0.13,81.34
20160126,26.22,0.0,79.18
20160127,26.02,0.0,76.43
20160128,25.3,0.0,74.71
20160129,25.16,0.0,74.38
20160130,25.38,0.0,74.98
20160131,25.15,0.0,77.28
20160201,25.21,0.0,74.14
20160202,24.88,0.0,75.58
20160203,25.02,0.0,74.4
20160204,25.41,0.0,69.61
20160205,26.04,0.0,70.2
20160206,26.2,0.1,74.16
20160207,27.34,0.15,73.57
20160208,27.43,0.04,74.97
20160209,27.14,0.01,74.81
20160210,27.15,0.05,71.23
20160211,27.12,0.01,68.8
20160212,27.01,0.0,66.74
20160213,27.18,0.0,67.49
20160214,26.85,0.0,70.13
20160215,27.52,0.04,70.37
20160216,27.83,0.12,70.16
20160217,27.7,0.3,72.89
20160218,28.0,0.25,73.74
20160219,28.13,0.09,72.06
20160220,28.44,0.31,73.61
20160221,28.72,0.07,70.15
20160222,28.76,0.01,66.52
20160223,27.68,0.0,63.88
20160224,28.21,0.0,62.03
20160225,29.16,0.01,69.86
20160226,28.88,0.01,69.37
20160227,28.6,0.16,70.78
20160228,28.87,0.23,72.49
20160229,28.51,0.09,71.01
20160301,28.67,0.45,70.78
20160302,28.66,0.01,69.5
20160303,28.36,0.0,68.18
20160304,28.49,0.0,70.17
20160305,28.88,0.0,67.62
20160306,28.72,0.0,66.11
20160307,28.94,0.01,65.02
20160308,28.68,0.02,66.77
20160309,29.48,0.03,65.54
20160310,29.59,0.05,70.2
20160311,30.14,0.08,66.98
20160312,29.85,0.02,64.72
20160313,30.08,0.04,62.16
20160314,30.09,0.02,65.92
20160315,30.2,0.04,64.3
20160316,30.26,0.09,65.45
20160317,30.6,0.04,63.67
20160318,30.28,0.0,59.89
20160319,30.49,0.0,57.63
20160320,30.43,0.0,58.47
20160321,30.46,0.0,62.6
20160322,30.93,0.02,66.37
20160323,31.29,0.05,64.04
20160324,31.06,0.02,58.79
20160325,30.01,0.0,60.21
20160326,30.27,0.0,57.53
20160327,30.9,0.01,57.23
20160328,30.94,7.61,64.68
20160329,30.48,1.36,69.06
20160330,30.81,2.65,65.49
20160331,30.86,0.31,63.75
20160401,31.21,0.14,59.44
20160402,31.24,0.01,59.89
20160403,31.55,0.01,58.35
20160404,31.5,0.02,58.85
20160405,31.53,0.01,62.07
20160406,31.72,0.2,63.28
20160407,31.56,0.2,63.76
20160408,31.2,0.36,66.76
20160409,30.65,7.9,70.61
20160410,30.91,2.25,67.34
20160411,31.61,0.11,63.21
20160412,31.74,0.02,65.52
20160413,32.65,0.01,61.31
20160414,32.05,0.13,66.88
20160415,32.11,0.06,65.65
20160416,31.59,0.06,67.58
20160417,31.6,0.03,67.32
20160418,31.41,0.1,68.91
20160419,31.14,0.4,69.79
20160420,31.13,0.25,69.53
20160421,31.82,0.06,65.93
20160422,32.57,0.05,64.59
20160423,33.68,0.04,56.18
20160424,33.08,0.03,60.47
20160425,32.31,0.03,64.41
20160426,31.97,0.55,63.84
20160427,30.82,0.84,67.79
20160428,31.36,0.12,67.03
20160429,31.6,0.09,64.08
20160430,31.99,0.12,61.79
20160501,31.75,0.1,64.62
20160502,32.45,0.02,62.13
20160503,32.02,0.03,65.6
20160504,32.26,0.1,64.37
20160505,31.93,0.16,63.55
20160506,31.76,0.89,64.95
20160507,31.82,1.22,65.14
20160508,32.58,0.56,59.61
20160509,30.89,0.58,68.79
20160510,31.39,0.69,62.69
20160511,29.85,6.51,65.41
20160512,30.72,1.11,62.68
20160513,31.55,0.94,62.57
20160514,30.93,2.99,67.3
20160515,29.1,21.12,73.77
20160516,27.14,49.31,79.59
20160517,28.3,5.21,73.12
20160518,30.08,1.44,73.15
20160519,29.9,2.09,74.63
20160520,30.18,1.23,73.15
20160521,31.52,0.08,66.43
20160522,31.62,0.02,68.47
20160523,31.56,0.03,68.59
20160524,30.83,0.04,72.17
20160525,31.09,0.19,69.95
20160526,30.99,0.08,69.24
20160527,30.66,0.57,70.72
20160528,30.36,0.61,67.26
20160529,30.05,0.1,67.34
20160530,30.26,1.39,67.74
20160531,30.41,1.08,67.29
20160601,30.6,0.21,66.96
20160602,29.71,0.41,71.01
20160603,29.9,0.04,69.78
20160604,30.82,2.04,66.63
20160605,30.78,1.22,68.19
20160606,29.95,0.4,71.25
20160607,29.66,2.57,77.3
20160608,29.4,1.41,76.46
20160609,28.89,0.19,78.9
20160610,29.08,0.13,72.81
20160611,29.74,0.39,72.52
20160612,30.21,0.12,67.14
20160613,30.45,0.07,63.51
20160614,31.01,0.04,64.32
20160615,30.88,0.01,62.05
20160616,30.22,0.02,66.07
20160617,29.71,0.18,68.47
20160618,28.72,1.68,67.59
20160619,29.94,0.33,63.37
20160620,29.5,0.03,65.62
20160621,29.47,0.02,65.51
20160622,29.64,0.19,61.58
20160623,28.81,1.2,61.8
20160624,29.35,0.02,58.61
20160625,30.74,0.0,55.13
20160626,30.93,0.01,58.84
20160627,31.14,0.1,61.15
20160628,29.57,0.07,65.6
20160629,29.57,0.67,67.81
20160630,30.69,0.01,59.83
20160701,30.92,0.09,58.39
20160702,30.65,0.0,57.88
20160703,31.6,0.02,55.2
20160704,31.31,0.01,55.39
20160705,31.62,0.01,58.05
20160706,30.4,3.55,67.36
20160707,30.59,0.04,63.1
20160708,30.28,0.07,59.53
20160709,30.19,0.16,62.18
20160710,29.84,0.09,66.58
20160711,30.62,0.03,63.43
20160712,30.32,0.03,62.71
20160713,30.58,0.0,59.18
20160714,30.82,0.24,59.3
20160715,30.15,1.08,64.17
20160716,29.56,5.82,69.07
20160717,28.34,2.95,72.62
20160718,28.21,2.61,71.35
20160719,29.54,0.16,62.82
20160720,30.29,0.11,59.37
20160721,29.98,0.05,60.08
20160722,29.93,0.01,59.87
20160723,29.31,0.03,63.12
20160724,28.97,1.83,68.91
20160725,28.64,16.42,72.38
20160726,27.3,16.24,79.89
20160727,27.84,3.47,76.68
20160728,28.32,1.87,74.64
20160729,29.21,1.27,70.47
20160730,28.83,0.71,70.19
20160731,29.73,0.02,67.51
20160801,29.57,0.02,67.27
20160802,29.5,0.0,64.89
20160803,29.68,0.01,65.75
20160804,30.01,0.01,65.06
20160805,29.5,0.0,63.96
20160806,30.58,0.01,59.17
20160807,30.41,0.01,61.84
20160808,30.16,0.01,62.19
20160809,30.78,2.79,60.85
20160810,30.46,0.67,62.91
20160811,30.3,0.08,61.51
20160812,30.9,0.07,60.36
20160813,31.04,0.21,61.04
20160814,30.89,0.03,60.99
20160815,30.7,0.02,60.63
20160816,30.77,0.0,59.16
20160817,30.56,0.01,60.18
20160818,31.21,0.01,59.95
20160819,31.1,0.01,56.9
20160820,30.9,0.06,60.68
20160821,31.43,1.12,60.73
20160822,30.77,0.5,62.43
20160823,29.85,1.74,65.88
20160824,30.07,0.15,64.69
20160825,29.13,1.51,68.7
20160826,28.72,8.47,72.68
20160827,28.73,3.3,70.41
20160828,29.79,1.24,65.35
20160829,30.55,1.02,58.99
20160830,29.71,4.99,63.17
20160831,28.86,6.05,66.28
20160901,29.36,3.13,61.18
20160902,28.92,1.32,65.98
20160903,29.6,0.21,63.07
20160904,30.11,1.34,64.2
20160905,29.96,0.04,62.79
20160906,29.5,0.01,62.8
20160907,30.17,0.0,57.73
20160908,30.13,0.0,58.18
20160909,30.43,0.14,61.43
20160910,30.74,0.35,61.75
20160911,29.82,0.06,62.64
20160912,30.39,0.04,59.05
20160913,30.65,0.06,59.97
20160914,30.54,0.04,60.76
20160915,30.68,0.25,61.06
20160916,30.79,0.04,61.47
20160917,31.01,0.01,60.53
20160918,30.21,0.02,61.04
20160919,30.66,0.09,58.8
20160920,31.03,0.81,55.72
20160921,30.74,0.21,59.33
20160922,30.27,0.01,58.2
20160923,30.36,0.0,57.03
20160924,31.23,0.02,55.16
20160925,31.43,0.01,55.28
20160926,31.92,0.06,53.92
20160927,31.32,0.75,57.77
20160928,30.51,3.86,64.93
20160929,29.73,2.21,69.33
20160930,30.16,0.76,63.47
20161001,30.54,0.01,59.93
20161002,30.03,0.0,61.29
20161003,30.15,0.0,61.99
20161004,30.15,0.4,62.31
20161005,30.33,5.29,63.06
20161006,29.56,1.14,68.54
20161007,30.18,0.05,61.91
20161008,30.1,0.0,58.37
20161009,30.88,0.0,57.58
20161010,30.91,0.0,55.42
20161011,31.16,0.02,54.33
20161012,30.51,0.52,60.28
20161013,30.5,2.26,63.09
20161014,30.29,0.91,60.69
20161015,29.66,0.48,62.64
20161016,29.86,0.11,61.71
20161017,29.67,0.34,63.96
20161018,29.79,0.55,63.8
20161019,30.36,0.54,62.62
20161020,28.81,4.44,71.11
20161021,27.42,5.44,76.47
20161022,28.14,1.92,71.76
20161023,28.88,2.61,69.23
20161024,29.07,0.81,66.85
20161025,28.98,3.53,66.22
20161026,28.73,0.9,66.53
20161027,29.43,0.06,61.38
20161028,29.69,0.1,60.51
20161029,30.5,1.32,62.04
20161030,29.02,10.44,73.14
20161031,27.76,17.75,80.92
20161101,28.13,3.42,73.14
20161102,28.06,12.84,75.22
20161103,27.13,3.28,77.79
20161104,27.83,2.11,78.04
20161105,28.55,0.55,74.69
20161106,28.82,1.23,72.0
20161107,28.5,0.51,68.39
20161108,28.25,1.92,68.21
20161109,27.83,2.25,65.72
20161110,27.68,0.06,62.42
20161111,27.84,0.04,66.93
20161112,28.35,0.2,70.61
20161113,28.49,2.36,73.39
20161114,28.22,4.45,75.76
20161115,28.38,2.03,71.05
20161116,27.83,6.67,75.9
20161117,27.19,12.7,82.25
20161118,27.51,3.75,76.83
20161119,26.43,13.13,81.68
20161120,27.01,3.22,77.31
20161121,27.27,1.55,76.42
20161122,27.6,1.93,75.83
20161123,27.19,0.47,74.41
20161124,26.52,0.0,67.63
20161125,26.71,0.0,70.5
20161126,26.86,0.0,68.47
20161127,26.42,0.0,65.16
20161128,25.11,0.0,65.96
20161129,25.3,0.0,66.85
20161130,25.42,0.06,66.77
20161201,24.7,10.65,66.07
20161202,24.92,25.45,84.59
20161203,26.43,3.92,81.92
20161204,26.71,2.32,80.01
20161205,27.22,0.51,77.85
20161206,26.5,0.28,70.13
20161207,26.3,0.06,74.54
20161208,26.9,3.38,77.33
20161209,26.83,1.28,75.47
20161210,27.32,0.21,72.7
20161211,27.32,0.0,67.98
20161212,27.53,0.0,63.59
20161213,27.8,0.05,68.58
20161214,26.64,0.01,67.45
20161215,27.02,0.0,70.94
20161216,26.99,0.05,74.08
20161217,27.01,0.01,70.67
20161218,26.71,0.0,69.92
20161219,27.03,0.08,67.51
20161220,26.42,2.48,80.68
20161221,27.09,0.57,78.27
20161222,27.03,0.01,67.56
20161223,26.07,0.01,61.96
20161224,25.37,0.0,63.18
20161225,25.57,0.0,62.91
20161226,26.3,0.0,65.49
20161227,26.97,5.57,74.85
20161228,26.75,5.85,80.72
20161229,26.6,1.14,76.37
20161230,26.35,0.03,67.78
20161231,25.94,0.0,63.27
20170101,26.19,0.05,70.14
20170102,26.91,0.01,69.54
20170103,26.78,0.0,66.72
20170104,25.82,0.0,64.56
20170105,26.16,0.0,65.16
20170106,26.16,0.0,64.88
20170107,25.99,0.0,65.09
20170108,25.63,0.0,62.0
20170109,25.39,0.0,59.07
20170110,25.65,0.0,61.59
20170111,26.17,0.0,61.05
20170112,26.36,0.0,65.22
20170113,26.42,0.0,66.04
20170114,26.33,0.01,66.08
20170115,25.98,0.03,68.07
20170116,26.21,0.02,66.29
20170117,25.45,0.0,61.93
20170118,25.21,0.0,63.57
20170119,26.06,0.02,64.51
20170120,26.53,2.61,70.36
20170121,25.56,21.18,85.28
20170122,25.88,7.7,77.27
20170123,25.84,0.08,73.07
20170124,25.75,0.07,71.63
20170125,26.27,1.06,73.45
20170126,26.3,2.66,79.59
20170127,25.88,21.17,86.84
20170128,26.31,5.16,81.73
20170129,26.74,1.89,80.01
20170130,26.79,0.15,72.7
20170131,26.24,0.0,70.77
20170201,25.58,0.0,69.67
20170202,25.62,0.0,66.28
20170203,25.49,0.0,65.99
20170204,25.53,0.0,66.72
20170205,25.53,0.0,61.79
20170206,25.87,0.0,63.05
20170207,26.15,0.0,59.46
20170208,25.19,0.0,61.6
20170209,25.13,0.0,66.35
20170210,25.64,0.0,65.35
20170211,26.14,0.0,63.29
20170212,26.1,0.0,63.5
20170213,26.59,0.63,67.17
20170214,26.73,4.48,76.52
20170215,27.1,0.26,67.69
20170216,26.3,0.0,67.65
20170217,26.16,0.0,60.45
20170218,26.61,0.0,62.0
20170219,26.5,0.0,64.26
20170220,27.4,0.0,58.3
20170221,28.31,0.0,66.09
20170222,27.8,0.0,69.13
20170223,27.83,0.0,66.56
20170224,27.25,0.0,68.8
20170225,27.32,0.0,67.74
20170226,27.37,0.0,65.83
20170227,27.15,0.01,69.15
20170228,27.68,0.04,71.77
20170301,27.52,0.01,67.86
20170302,27.75,0.5,69.27
20170303,28.14,2.83,72.43
20170304,27.51,4.38,75.43
20170305,28.83,0.19,67.99
20170306,29.0,0.64,72.64
20170307,29.16,0.49,70.51
20170308,29.21,2.42,69.08
20170309,28.95,2.46,71.66
20170310,28.56,3.42,74.12
20170311,28.42,2.91,76.17
20170312,29.17,1.53,70.48
20170313,29.26,1.03,69.31
20170314,28.54,8.3,74.61
20170315,28.31,8.36,75.14
20170316,28.16,1.72,71.88
20170317,29.2,0.2,64.89
20170318,29.37,0.04,63.39
20170319,29.85,0.1,66.12
20170320,30.27,0.42,65.69
20170321,30.25,0.16,63.51
20170322,30.03,0.02,62.91
20170323,29.61,0.0,61.31
20170324,28.65,0.0,56.46
20170325,28.62,0.0,57.55
20170326,28.39,0.0,62.67
20170327,29.05,0.01,60.15
20170328,29.78,0.04,64.15
20170329,30.29,0.02,59.12
20170330,30.43,0.09,62.98
20170331,30.56,0.36,65.85
20170401,30.59,0.01,60.03
20170402,30.64,0.01,61.71
20170403,30.62,0.08,67.62
20170404,30.9,0.05,66.78
20170405,31.44,0.03,62.45
20170406,31.43,0.09,62.65
20170407,31.49,0.08,60.61
20170408,31.14,0.09,63.65
20170409,30.97,0.14,63.98
20170410,31.17,0.09,63.43
20170411,31.53,0.29,61.52
20170412,31.37,0.23,64.19
20170413,31.29,0.09,65.57
20170414,31.33,0.07,63.48
20170415,32.1,0.03,60.78
20170416,32.62,0.01,58.58
20170417,32.62,0.0,58.96
20170418,32.7,0.0,56.32
20170419,32.37,0.01,59.67
20170420,32.04,0.03,59.69
20170421,32.54,0.0,57.03
20170422,32.74,0.08,57.08
20170423,31.85,0.4,63.04
20170424,32.67,0.08,59.12
20170425,32.62,0.01,58.21
20170426,32.31,0.21,61.4
20170427,31.7,0.12,64.36
20170428,31.54,0.02,63.55
20170429,31.71,0.05,61.55
20170430,31.49,0.09,62.47
20170501,31.09,0.35,64.94
20170502,31.39,0.2,61.03
20170503,30.69,0.84,63.98
20170504,31.04,0.24,62.73
20170505,30.73,0.19,67.11
20170506,30.49,1.16,69.96
20170507,30.6,0.81,68.5
20170508,31.56,0.55,62.63
20170509,31.94,0.42,59.79
20170510,30.6,0.77,69.87
20170511,31.52,0.4,63.92
20170512,30.87,1.29,67.42
20170513,30.77,4.86,70.39
20170514,31.34,3.0,65.83
20170515,31.45,0.09,67.39
20170516,31.39,0.28,67.52
20170517,32.2,0.34,64.9
20170518,31.27,1.9,67.52
20170519,31.69,0.24,60.22
20170520,31.41,8.55,65.42
20170521,30.5,1.76,71.37
20170522,31.63,0.32,65.39
20170523,30.52,0.38,69.44
20170524,30.62,0.46,70.32
20170525,30.96,0.54,68.12
20170526,28.83,0.33,76.85
20170527,31.14,0.41,67.51
20170528,31.05,0.7,66.62
20170529,29.99,0.95,72.07
20170530,30.18,0.51,70.9
20170531,31.05,3.0,66.16
20170601,30.63,0.41,64.72
20170602,30.43,1.1,64.26
20170603,30.33,0.13,65.85
20170604,30.86,0.15,63.31
20170605,31.14,2.23,65.39
20170606,30.55,0.78,67.69
20170607,29.72,8.71,70.34
20170608,30.24,0.6,65.47
20170609,29.99,1.07,65.0
20170610,29.81,3.04,67.6
20170611,30.33,0.05,62.82
20170612,30.58,0.02,66.3
20170613,30.78,0.04,67.03
20170614,30.32,3.98,71.24
20170615,29.72,1.38,74.05
20170616,29.06,7.76,77.96
20170617,29.39,1.74,70.23
20170618,30.82,0.06,64.08
20170619,30.39,1.82,68.5
20170620,29.3,1.18,73.66
20170621,29.71,0.02,71.22
20170622,29.83,0.09,70.18
20170623,30.17,0.07,68.09
20170624,29.66,0.09,64.83
20170625,29.5,0.49,64.23
20170626,28.93,1.57,68.57
20170627,28.88,0.7,71.08
20170628,29.31,0.31,68.7
20170629,29.82,0.04,62.49
20170630,29.74,0.1,67.79
20170701,30.62,0.05,61.91
20170702,29.99,0.01,61.03
20170703,30.82,0.92,59.62
20170704,31.14,0.14,54.6
20170705,30.31,0.07,61.58
20170706,29.81,0.82,66.21
20170707,30.12,0.55,62.03
20170708,29.67,2.38,64.05
20170709,29.5,5.35,64.96
20170710,30.14,0.19,63.28
20170711,31.15,0.05,60.43
20170712,30.64,0.13,58.41
20170713,30.81,0.23,60.2
20170714,30.63,0.0,54.05
20170715,29.85,0.01,65.3
20170716,29.78,0.01,64.3
20170717,30.05,0.02,62.94
20170718,29.98,0.02,65.62
20170719,30.31,0.05,66.62
20170720,30.4,0.03,66.87
20170721,30.47,0.02,60.64
20170722,31.31,0.01,61.08
20170723,31.31,0.01,60.78
20170724,32.09,0.0,55.28
20170725,32.45,0.05,53.71
20170726,32.65,0.06,53.6
20170727,32.03,1.88,53.47
20170728,31.58,1.39,59.96
20170729,30.84,5.16,62.64
20170730,29.73,4.01,70.77
20170731,29.72,6.65,71.71
20170801,30.02,2.85,68.68
20170802,30.22,1.63,67.52
20170803,30.97,0.27,62.5
20170804,30.51,0.11,65.57
20170805,30.57,0.11,65.02
20170806,30.55,0.29,64.14
20170807,29.93,1.41,67.96
20170808,29.46,5.31,66.96
20170809,28.9,6.67,73.7
20170810,29.51,2.66,68.25
20170811,29.37,1.58,69.18
20170812,29.62,3.89,63.11
20170813,27.57,28.9,77.45
20170814,27.86,14.38,77.16
20170815,28.27,1.51,74.74
20170816,28.59,0.41,71.55
20170817,28.85,0.65,72.77
20170818,28.95,1.17,72.8
20170819,29.22,0.08,70.18
20170820,28.54,0.25,73.72
20170821,29.3,0.14,68.86
20170822,29.17,0.02,68.34
20170823,28.86,0.46,70.57
20170824,28.86,0.95,72.13
20170825,30.13,0.07,66.95
20170826,29.97,0.02,67.04
20170827,28.94,0.12,73.24
20170828,29.11,0.18,73.42
20170829,29.41,0.34,69.52
20170830,29.93,4.74,69.87
20170831,29.13,9.35,72.48
20170901,28.48,18.38,81.43
20170902,28.99,5.54,75.68
20170903,28.18,2.27,75.35
20170904,28.81,4.96,76.76
20170905,29.18,2.59,76.67
20170906,28.44,0.6,78.37
20170907,28.28,0.69,78.35
20170908,27.55,28.79,84.79
20170909,27.5,14.43,83.42
20170910,27.94,4.56,80.2
20170911,28.0,2.85,81.67
20170912,27.6,5.05,81.86
20170913,27.37,9.24,85.03
20170914,27.47,1.51,83.11
20170915,27.82,0.39,81.54
20170916,27.83,1.02,82.79
20170917,27.35,2.21,83.3
20170918,28.29,0.16,77.36
20170919,28.1,0.07,79.76
20170920,28.11,0.04,78.89
20170921,28.09,0.01,77.09
20170922,28.82,0.03,73.48
20170923,28.74,0.06,74.13
20170924,28.71,1.25,76.62
20170925,28.11,2.16,77.37
20170926,27.97,4.54,80.01
20170927,28.16,2.18,80.02
20170928,27.82,8.57,79.57
20170929,28.59,0.27,75.17
20170930,29.06,0.05,74.73
20171001,29.08,0.06,73.68
20171002,29.13,0.19,74.13
20171003,29.47,0.21,72.37
20171004,29.12,2.54,76.68
20171005,28.1,9.34,82.66
20171006,28.33,3.94,77.67
20171007,28.48,0.38,74.77
20171008,29.01,0.2,75.27
20171009,28.77,0.18,77.11
20171010,28.65,0.71,77.55
20171011,28.09,2.5,74.25
20171012,28.57,1.41,72.87
20171013,28.18,1.3,78.18
20171014,28.12,2.41,78.36
20171015,27.97,0.21,75.56
20171016,28.97,0.03,72.86
20171017,28.97,0.66,69.52
20171018,29.54,0.85,67.6
20171019,29.61,0.66,71.56
20171020,29.03,0.13,76.26
20171021,28.47,5.66,78.84
20171022,29.28,1.77,75.82
20171023,29.27,0.63,73.69
20171024,28.44,2.38,77.41
20171025,28.5,3.29,76.2
20171026,28.32,8.42,76.84
20171027,27.73,6.92,78.18
20171028,27.5,5.15,80.48
20171029,28.18,2.2,77.27
20171030,26.67,6.46,86.33
20171031,26.35,9.55,86.9
20171101,26.49,6.46,85.5
20171102,26.26,14.46,87.29
20171103,26.23,5.23,85.96
20171104,26.08,12.57,89.31
20171105,27.01,5.02,84.14
20171106,26.67,6.68,86.3
20171107,26.59,6.09,85.39
20171108,26.17,15.77,85.97
20171109,26.8,0.48,79.65
20171110,25.69,4.38,84.68
20171111,26.21,0.88,84.03
20171112,26.9,0.03,78.13
20171113,27.42,4.28,79.44
20171114,27.09,6.24,82.63
20171115,26.89,1.76,83.08
20171116,27.39,0.01,72.82
20171117,26.4,0.0,74.14
20171118,27.48,1.66,75.66
20171119,27.29,3.81,82.83
20171120,27.3,3.02,83.69
20171121,26.78,2.73,87.61
20171122,27.05,1.28,84.19
20171123,27.31,0.77,79.03
20171124,27.28,1.61,79.04
20171125,26.82,0.69,78.64
20171126,25.38,15.42,88.85
20171127,26.63,11.52,86.53
20171128,26.72,8.49,88.1
20171129,26.37,13.56,90.05
20171130,26.48,42.08,92.22
20171201,25.88,23.12,91.67
20171202,25.6,3.72,89.7
20171203,26.18,1.71,84.77
20171204,26.34,0.22,84.05
20171205,25.9,0.24,85.2
20171206,26.17,2.29,85.18
20171207,26.18,0.84,82.64
20171208,25.35,0.0,79.41
20171209,25.37,0.0,73.29
20171210,26.4,0.02,76.16
20171211,26.62,0.35,80.74
20171212,26.72,0.89,80.26
20171213,26.82,1.0,80.0
20171214,26.46,0.6,84.84
20171215,26.26,1.56,85.4
20171216,26.19,0.37,82.39
20171217,25.78,0.11,81.18
20171218,25.19,0.03,77.03
20171219,25.14,5.02,82.54
20171220,25.5,4.19,84.39
20171221,24.08,3.56,85.81
20171222,25.54,0.53,82.26
20171223,25.44,0.11,76.62
20171224,24.98,0.11,79.12
20171225,25.73,2.22,82.95
20171226,25.59,1.3,81.39
20171227,25.1,0.01,78.81
20171228,24.72,0.0,71.87
20171229,24.85,0.0,70.67
20171230,25.33,0.0,73.82
20171231,25.5,0.0,75.21
20180101,26.48,0.0,75.1
20180102,26.94,0.0,73.5
20180103,26.82,0.0,72.95
20180104,26.13,0.0,70.04
20180105,25.18,0.0,67.84
20180106,25.07,0.0,63.48
20180107,24.79,0.0,65.4
20180108,24.9,0.03,69.99
20180109,25.26,2.6,78.25
20180110,26.22,1.5,80.79
20180111,26.75,0.35,78.07
20180112,25.99,0.73,83.03
20180113,26.11,0.26,79.51
20180114,25.79,0.0,75.5
20180115,26.13,0.03,74.39
20180116,26.04,0.0,75.46
20180117,26.01,0.0,69.27
20180118,25.15,0.0,65.09
20180119,25.0,0.0,68.96
20180120,25.04,0.0,65.87
20180121,25.04,0.01,67.65
20180122,25.56,0.01,67.37
20180123,26.14,0.0,67.9
20180124,26.31,0.0,68.49
20180125,26.42,0.0,69.26
20180126,26.11,0.0,67.2
20180127,26.25,0.0,65.69
20180128,26.09,0.02,66.58
20180129,26.43,0.02,70.53
20180130,26.73,0.01,67.17
20180131,26.17,0.0,63.03
20180201,25.61,0.0,63.19
20180202,25.34,0.0,63.13
20180203,25.32,0.0,64.64
20180204,25.78,0.0,64.89
20180205,26.67,0.0,64.84
20180206,26.97,0.44,76.75
20180207,26.92,1.87,80.12
20180208,26.93,0.62,77.85
20180209,27.6,0.01,70.02
20180210,26.91,0.0,69.69
20180211,27.36,0.0,70.6
20180212,27.45,0.02,71.22
20180213,26.82,0.0,67.68
20180214,27.41,0.0,68.38
20180215,27.54,0.01,71.13
20180216,27.5,0.0,65.11
20180217,27.29,0.0,63.29
20180218,27.07,0.0,63.41
20180219,26.4,0.0,64.19
20180220,26.62,0.0,66.56
20180221,26.75,0.0,64.41
20180222,26.59,0.0,64.36
20180223,26.67,0.0,65.65
20180224,27.53,0.0,68.66
20180225,28.04,0.04,68.14
20180226,28.28,0.01,68.11
20180227,28.1,0.3,71.29
20180228,28.51,0.18,70.95
20180301,28.34,0.52,71.68
20180302,28.47,0.03,65.68
20180303,28.35,0.01,64.93
20180304,28.15,0.0,60.39
20180305,28.04,0.01,62.21
20180306,27.92,0.0,60.67
20180307,28.07,0.0,66.32
20180308,28.39,0.02,67.63
20180309,28.6,0.0,67.08
20180310,28.88,0.01,66.17
20180311,28.78,0.01,67.82
20180312,28.71,4.33,70.76
20180313,27.98,8.1,75.67
20180314,28.9,1.83,71.05
20180315,28.47,2.16,73.71
20180316,29.81,0.39,65.32
20180317,28.95,2.07,71.52
20180318,29.34,0.52,67.91
20180319,29.14,0.03,63.37
20180320,28.64,0.0,61.75
20180321,29.7,0.0,59.42
20180322,30.04,0.04,66.47
20180323,30.48,0.1,64.33
20180324,30.32,0.26,63.47
20180325,29.71,0.0,62.72
20180326,29.71,0.03,63.1
20180327,29.72,0.1,69.65
20180328,29.72,0.05,71.3
20180329,30.54,0.01,66.76
20180330,30.43,0.06,70.93
20180331,31.12,0.19,67.42
20180401,31.16,0.15,63.51
20180402,30.51,0.03,66.05
20180403,30.6,0.04,63.91
20180404,30.39,0.01,63.49
20180405,30.17,0.01,62.88
20180406,30.33,0.05,61.01
20180407,30.79,0.49,63.26
20180408,30.45,0.84,66.13
20180409,29.54,6.74,71.37
20180410,29.3,5.0,73.54
20180411,29.57,2.23,72.02
20180412,29.98,1.61,70.34
20180413,30.22,4.63,67.21
20180414,29.58,7.55,71.94
20180415,29.23,4.44,73.26
20180416,30.3,1.05,69.03
20180417,30.98,0.1,63.77
20180418,30.58,0.38,67.1
20180419,30.71,0.1,68.57
20180420,30.89,0.3,68.27
20180421,30.37,0.14,70.84
20180422,30.76,0.08,69.32
20180423,30.91,0.02,66.96
20180424,30.89,0.03,67.06
20180425,31.24,0.08,67.43
20180426,30.82,0.16,70.05
20180427,30.9,0.25,69.06
20180428,29.98,0.17,71.77
20180429,30.83,0.13,68.15
20180430,31.43,0.21,67.05
20180501,31.34,0.38,68.83
20180502,31.87,0.67,65.69
20180503,31.12,0.95,70.0
20180504,29.56,7.13,77.86
20180505,29.75,3.52,71.38
20180506,29.58,1.13,71.36
20180507,30.21,0.89,70.38
20180508,30.16,3.63,70.47
20180509,28.53,9.39,76.7
20180510,28.09,5.88,81.9
20180511,30.05,0.51,70.86
20180512,30.3,0.45,70.63
20180513,30.24,0.72,65.89
20180514,29.84,6.27,70.13
20180515,29.65,7.41,74.66
20180516,29.57,3.09,72.29
20180517,29.18,1.67,74.61
20180518,30.04,1.58,69.37
20180519,30.75,0.26,67.73
20180520,30.34,0.35,69.88
20180521,30.39,0.23,67.56
20180522,30.82,1.95,64.47
20180523,29.62,3.52,74.55
20180524,28.68,9.01,80.04
20180525,28.75,6.66,77.58
20180526,28.58,0.65,80.75
20180527,29.31,0.23,75.15
20180528,29.43,1.12,77.21
20180529,30.66,0.05,68.96
20180530,30.84,0.02,67.74
20180531,30.36,0.04,69.33
20180601,29.81,0.32,73.45
20180602,29.43,0.2,76.32
20180603,29.57,0.45,73.0
20180604,29.16,10.55,77.74
20180605,29.26,3.33,75.84
20180606,30.16,1.09,69.77
20180607,29.61,1.33,73.3
20180608,29.7,0.75,73.58
20180609,30.11,0.15,70.35
20180610,29.76,0.12,73.14
20180611,30.03,0.15,70.52
20180612,29.99,0.05,70.79
20180613,29.98,0.09,67.34
20180614,30.34,0.04,63.19
20180615,29.89,0.09,67.54
20180616,29.81,4.15,67.3
20180617,29.91,0.27,64.48
20180618,30.25,0.04,61.51
20180619,29.35,0.05,71.26
20180620,29.4,0.07,70.97
20180621,29.19,0.04,71.71
20180622,30.01,0.05,63.38
20180623,30.48,0.01,62.7
20180624,30.22,0.04,65.44
20180625,29.36,0.01,65.33
20180626,30.05,0.05,60.81
20180627,29.17,0.04,65.47
20180628,29.66,0.02,60.4
20180629,30.2,0.06,61.63
20180630,29.44,4.36,62.81
20180701,28.86,7.47,70.73
20180702,29.17,4.57,70.13
20180703,28.96,1.89,69.31
20180704,30.02,0.07,64.99
20180705,30.38,0.05,62.03
20180706,30.74,0.01,59.41
20180707,30.18,0.01,60.21
20180708,29.8,0.05,62.12
20180709,29.36,0.15,70.06
20180710,28.56,0.18,72.57
20180711,28.85,0.1,69.02
20180712,29.16,0.08,65.35
20180713,29.47,0.11,68.16
20180714,29.28,0.04,69.79
20180715,28.8,0.39,72.4
20180716,29.5,0.66,65.78
20180717,30.37,0.04,59.53
20180718,29.79,0.17,62.6
20180719,30.12,0.37,64.06
20180720,29.57,0.09,64.75
20180721,29.65,0.03,62.18
20180722,30.55,0.01,60.18
20180723,30.99,0.03,61.16
20180724,30.65,0.21,61.75
20180725,31.08,0.16,59.51
20180726,30.99,0.02,58.63
20180727,30.91,0.0,59.75
20180728,30.73,0.0,59.39
20180729,30.31,0.02,63.61
20180730,29.16,0.24,69.59
20180731,29.34,1.21,67.99
20180801,29.76,0.31,65.71
20180802,30.15,4.32,65.22
20180803,28.59,4.65,72.98
20180804,28.47,1.89,66.51
20180805,29.64,0.06,63.88
20180806,29.77,0.01,64.32
20180807,29.58,0.06,64.45
20180808,29.47,0.35,63.38
20180809,30.14,0.21,60.45
20180810,29.54,2.39,62.98
20180811,30.45,0.14,56.42
20180812,29.99,0.05,60.23
20180813,30.0,0.08,60.26
20180814,29.49,2.35,64.19
20180815,28.98,3.51,67.7
20180816,28.7,1.24,67.38
20180817,29.75,0.44,64.86
20180818,29.1,0.91,64.64
20180819,29.69,0.04,61.94
20180820,30.14,0.0,61.01
20180821,30.44,0.01,59.89
20180822,30.33,0.0,59.4
20180823,30.55,0.1,58.81
20180824,30.38,1.72,60.44
20180825,30.37,0.8,62.93
20180826,30.26,2.04,62.02
20180827,29.87,3.07,64.58
20180828,29.59,0.83,63.06
20180829,29.57,0.12,61.28
20180830,29.88,4.94,65.07
20180831,28.9,4.76,71.03
20180901,28.5,5.08,71.24
20180902,28.77,1.16,71.69
20180903,29.34,0.15,67.35
20180904,29.94,0.01,65.25
20180905,30.14,0.0,61.37
20180906,30.56,0.0,60.25
20180907,30.0,0.0,59.51
20180908,30.13,0.0,61.31
20180909,30.41,0.2,62.94
20180910,29.08,3.31,69.33
20180911,29.62,0.63,67.74
20180912,30.17,0.06,65.64
20180913,30.44,0.38,64.9
20180914,29.97,2.79,67.0
20180915,29.2,1.04,70.02
20180916,28.6,2.13,63.79
20180917,29.21,0.39,67.75
20180918,29.87,0.07,63.91
20180919,29.85,1.11,64.79
20180920,29.86,0.5,65.33
20180921,30.03,0.05,62.95
20180922,29.33,0.12,68.18
20180923,29.99,1.25,68.38
20180924,29.29,1.88,71.01
20180925,29.66,3.08,67.93
20180926,29.19,1.42,70.53
20180927,29.32,5.35,70.33
20180928,28.28,13.88,77.61
20180929,28.67,4.19,73.94
20180930,29.1,2.29,71.85
20181001,28.73,5.97,75.48
20181002,28.56,6.28,75.89
20181003,27.86,16.63,80.67
20181004,27.03,25.32,85.85
20181005,27.8,9.42,83.17
20181006,27.63,16.44,82.96
20181007,27.98,8.7,78.27
20181008,27.55,11.19,80.08
20181009,27.42,3.96,79.12
20181010,28.51,0.33,74.36
20181011,28.75,0.15,75.6
20181012,28.58,0.05,78.73
20181013,28.18,1.29,78.45
20181014,27.73,3.08,79.3
20181015,27.96,0.48,77.47
20181016,27.1,13.45,83.23
20181017,27.45,3.25,75.03
20181018,27.78,1.86,74.54
20181019,27.7,2.0,75.7
20181020,27.71,5.2,78.11
20181021,27.79,6.62,80.42
20181022,27.23,5.18,84.65
20181023,27.3,2.74,78.4
20181024,27.41,7.16,77.36
20181025,26.89,12.07,83.22
20181026,27.25,4.11,79.86
20181027,27.08,2.22,81.93
20181028,27.49,0.9,76.11
20181029,28.38,0.02,69.11
20181030,28.63,0.7,72.25
20181031,27.4,7.16,85.43
20181101,27.18,17.63,85.31
20181102,26.87,17.42,85.36
20181103,26.67,17.84,86.98
20181104,27.13,0.62,79.85
20181105,26.91,0.25,80.51
20181106,26.57,4.89,84.31
20181107,26.49,3.54,83.1
20181108,25.61,11.33,89.09
20181109,26.53,3.74,85.77
20181110,26.73,0.02,80.47
20181111,26.56,0.02,77.08
20181112,26.54,0.0,75.47
20181113,26.68,0.05,78.46
20181114,27.31,0.03,75.5
20181115,27.62,6.22,73.76
20181116,26.11,39.68,87.78
20181117,26.99,0.21,80.71
20181118,27.0,3.27,83.71
20181119,26.96,11.59,84.83
20181120,25.81,8.16,89.07
20181121,26.23,0.75,82.16
20181122,26.05,6.67,84.29
20181123,26.48,19.92,89.43
20181124,26.31,6.91,88.09
20181125,26.07,0.08,83.61
20181126,25.63,0.0,80.27
20181127,25.07,0.0,77.92
20181128,25.59,1.97,83.78
20181129,26.07,15.18,88.15
20181130,26.23,3.24,86.1
20181201,25.92,0.3,82.87
20181202,25.66,0.04,81.4
20181203,25.91,4.48,86.88
20181204,26.61,6.66,86.07
20181205,26.59,2.36,86.51
20181206,26.46,0.98,85.28
20181207,26.54,0.97,84.84
20181208,26.38,0.1,82.09
20181209,26.08,0.01,81.4
20181210,25.82,0.0,80.9
20181211,25.31,0.0,81.27
20181212,25.6,0.0,81.27
20181213,25.96,0.0,79.5
20181214,25.69,0.05,82.44
20181215,25.43,0.03,82.74
20181216,25.07,0.0,74.97
20181217,25.33,0.0,72.59
20181218,26.56,0.04,78.0
20181219,25.99,0.01,78.61
20181220,25.82,0.02,77.27
20181221,26.39,3.31,81.89
20181222,25.11,8.43,83.37
20181223,26.3,3.55,86.87
20181224,25.7,2.26,88.08
20181225,26.39,0.15,79.41
20181226,26.25,0.13,78.33
20181227,25.67,0.0,77.97
20181228,26.01,0.0,77.74
20181229,26.39,0.09,75.83
20181230,25.98,0.06,73.94
20181231,25.47,0.26,74.38
20190101,24.81,0.0,71.03
20190102,24.07,0.0,70.18
20190103,24.71,0.0,67.55
20190104,24.88,0.0,67.31
20190105,25.21,0.0,70.24
20190106,25.11,0.0,70.57
20190107,25.55,0.0,70.48
20190108,25.68,0.0,72.3
20190109,24.93,0.0,71.24
20190110,25.01,0.0,70.7
20190111,25.22,0.0,71.47
20190112,25.38,0.0,69.31
20190113,25.86,0.09,74.31
20190114,26.37,0.25,72.98
20190115,25.92,0.72,70.78
20190116,25.81,0.0,70.03
20190117,25.19,0.0,67.31
20190118,24.88,0.0,64.52
20190119,24.73,0.0,66.51
20190120,24.71,0.0,66.84
20190121,24.91,0.0,66.13
20190122,25.41,0.0,70.68
20190123,26.05,0.0,72.54
20190124,26.33,0.0,75.0
20190125,27.0,0.0,75.81
20190126,27.44,0.01,74.93
20190127,27.47,0.1,70.17
20190128,27.56,0.15,67.16
20190129,27.2,0.02,67.31
20190130,26.77,0.0,68.87
20190131,26.61,0.0,68.44
20190201,26.71,0.01,69.83
20190202,27.1,0.0,68.48
20190203,27.21,0.0,68.24
20190204,27.34,1.55,74.61
20190205,27.66,0.16,72.81
20190206,27.41,0.07,68.07
20190207,27.28,0.0,69.21
20190208,28.21,0.01,71.51
20190209,27.82,0.77,76.13
20190210,27.99,0.37,72.61
20190211,28.15,0.02,68.56
20190212,27.98,0.02,68.27
20190213,27.8,0.0,66.36
20190214,28.16,0.02,71.24
20190215,28.48,0.09,69.87
20190216,29.03,0.03,68.16
20190217,29.04,0.5,70.87
20190218,29.43,0.58,68.53
20190219,29.21,0.43,70.25
20190220,28.78,0.0,65.73
20190221,28.6,0.0,63.81
20190222,28.11,0.0,61.45
20190223,27.47,0.0,64.12
20190224,27.47,0.0,66.0
20190225,27.94,0.0,64.19
20190226,29.15,0.0,65.82
20190227,29.72,0.03,64.78
20190228,30.28,0.0,63.27
20190301,29.74,0.0,67.32
20190302,29.26,0.01,64.25
20190303,29.42,0.03,63.84
20190304,29.35,0.01,61.96
20190305,30.17,0.0,57.17
20190306,30.3,0.02,66.27
20190307,30.45,0.14,67.92
20190308,30.07,0.06,69.17
20190309,30.27,0.45,65.86
20190310,30.14,0.46,63.32
20190311,29.58,0.0,59.49
20190312,29.18,0.0,60.87
20190313,28.77,0.0,63.74
20190314,29.19,0.0,60.16
20190315,28.98,0.0,62.13
20190316,29.1,0.0,63.45
20190317,29.5,0.01,63.21
20190318,29.95,0.05,63.99
20190319,30.13,0.05,62.28
20190320,30.03,0.02,59.79
20190321,29.93,0.0,60.84
20190322,30.37,0.05,62.94
20190323,30.66,0.02,61.69
20190324,30.71,0.0,55.96
20190325,30.64,0.0,53.98
20190326,30.11,0.0,55.76
20190327,30.41,0.0,53.28
20190328,30.32,0.0,54.35
20190329,30.5,0.0,52.01
20190330,30.46,0.0,61.52
20190331,31.04,0.0,60.9
20190401,31.2,0.01,61.26
20190402,30.78,0.01,62.58
20190403,30.7,0.01,61.43
20190404,31.09,0.06,59.0
20190405,31.69,0.13,58.33
20190406,31.65,0.01,56.08
20190407,31.49,0.01,60.11
20190408,31.28,0.02,65.21
20190409,31.36,0.02,63.8
20190410,31.51,0.03,62.25
20190411,31.77,0.04,58.69
20190412,31.54,0.02,61.64
20190413,31.71,0.03,59.35
20190414,32.08,0.02,54.99
20190415,32.05,0.03,57.99
20190416,31.68,0.94,60.9
20190417,30.9,2.04,65.5
20190418,30.91,0.98,68.26
20190419,30.72,0.81,68.51
20190420,30.94,1.94,65.57
20190421,31.46,0.64,61.19
20190422,32.04,1.01,58.43
20190423,31.58,1.05,62.11
20190424,31.27,0.23,61.12
20190425,31.88,0.08,58.25
20190426,31.62,0.18,62.42
20190427,31.74,0.06,63.92
20190428,32.21,0.2,63.37
20190429,32.34,2.8,63.32
20190430,32.7,0.31,59.47
20190501,32.0,0.08,60.56
20190502,32.44,0.02,59.4
20190503,32.74,0.0,56.89
20190504,32.89,0.0,57.07
20190505,32.01,0.01,62.27
20190506,31.95,0.04,63.83
20190507,32.42,0.38,60.09
20190508,32.46,0.19,52.88
20190509,32.72,0.71,55.1
20190510,31.97,0.34,64.0
20190511,31.99,0.02,65.17
20190512,32.31,0.02,63.65
20190513,32.8,0.01,59.91
20190514,33.18,0.02,57.84
20190515,33.34,0.2,56.75
20190516,32.18,0.1,64.03
20190517,32.6,0.36,61.59
20190518,32.2,0.17,65.12
20190519,31.76,0.0,67.01
20190520,31.84,0.0,64.76
20190521,31.99,0.02,63.56
20190522,30.82,0.07,72.19
20190523,30.98,0.12,72.18
20190524,31.46,0.12,66.55
20190525,31.3,0.12,65.55
20190526,32.48,0.04,60.87
20190527,32.27,0.03,66.03
20190528,32.39,0.08,66.62
20190529,32.8,0.39,61.62
20190530,32.06,0.78,64.69
20190531,29.61,2.72,61.91
20190601,31.08,0.24,63.92
20190602,31.53,0.06,65.95
20190603,30.46,0.43,70.1
20190604,30.8,1.11,66.96
20190605,30.33,2.63,70.4
20190606,30.3,0.29,73.37
20190607,30.29,4.24,71.07
20190608,30.58,1.27,69.77
20190609,30.37,0.67,72.2
20190610,30.28,0.62,71.31
20190611,30.82,0.34,68.1
20190612,30.55,0.15,69.77
20190613,30.94,0.37,67.98
20190614,31.29,0.49,63.68
20190615,31.67,0.03,61.96
20190616,31.61,0.09,62.27
20190617,31.44,0.02,64.91
20190618,31.9,0.06,60.99
20190619,31.69,0.06,62.79
20190620,32.05,0.04,54.79
20190621,29.89,0.02,64.77
20190622,30.8,0.09,63.6
20190623,30.73,0.06,64.22
20190624,31.53,0.18,63.65
20190625,30.8,0.39,68.11
20190626,31.41,0.01,63.4
20190627,31.77,0.0,61.26
20190628,31.32,0.0,60.49
20190629,32.21,0.0,55.39
20190630,31.44,0.0,58.83
20190701,31.84,0.01,60.93
20190702,30.78,0.02,66.36
20190703,31.13,0.03,64.85
20190704,31.31,0.08,64.52
20190705,30.34,0.07,67.9
20190706,30.22,0.02,68.26
20190707,30.65,0.01,65.89
20190708,31.0,0.03,65.14
20190709,29.94,0.34,66.11
20190710,30.74,0.27,58.92
20190711,31.0,0.08,55.6
20190712,31.42,0.05,57.72
20190713,30.62,0.13,65.57
20190714,30.35,0.36,65.96
20190715,30.64,2.09,62.89
20190716,31.06,0.19,59.2
20190717,31.46,0.28,57.3
20190718,29.63,3.58,64.12
20190719,28.98,1.05,69.75
20190720,29.75,0.15,64.92
20190721,30.56,1.67,61.45
20190722,29.29,0.36,67.15
20190723,30.89,0.05,55.3
20190724,30.73,0.4,58.24
20190725,30.91,2.26,60.3
20190726,29.81,2.48,62.59
20190727,30.72,0.05,60.76
20190728,31.01,0.01,57.39
20190729,30.36,0.05,62.5
20190730,31.02,0.02,61.12
20190731,30.45,0.0,62.62
20190801,31.07,0.01,61.3
20190802,30.06,0.01,67.18
20190803,30.51,0.0,63.57
20190804,30.37,0.09,67.34
20190805,29.71,1.58,63.7
20190806,30.53,0.7,63.37
20190807,30.08,0.92,66.72
20190808,29.21,1.28,67.96
20190809,29.18,0.96,69.32
20190810,29.12,0.35,66.93
20190811,29.75,0.09,61.19
20190812,31.34,0.02,57.57
20190813,29.93,1.74,62.54
20190814,30.55,2.03,63.68
20190815,30.3,0.55,63.92
20190816,30.05,3.88,60.38
20190817,27.26,7.71,75.63
20190818,28.33,10.48,74.64
20190819,28.84,6.5,74.36
20190820,29.7,2.95,70.48
20190821,29.01,3.88,72.93
20190822,29.01,2.86,69.18
20190823,29.06,0.16,64.25
20190824,29.2,0.1,63.6
20190825,28.86,0.54,67.28
20190826,28.42,0.09,71.52
20190827,29.51,0.08,65.99
20190828,29.44,0.06,66.7
20190829,27.96,6.94,72.95
20190830,29.82,0.28,62.25
20190831,28.71,0.52,67.13
20190901,29.38,0.73,71.84
20190902,28.69,1.03,75.26
20190903,28.87,0.69,74.34
20190904,29.61,0.36,70.01
20190905,29.94,0.33,67.97
20190906,30.22,0.18,69.48
20190907,30.47,0.05,65.77
20190908,29.8,0.03,66.68
20190909,30.57,0.02,58.63
20190910,30.52,1.43,63.59
20190911,29.76,3.79,70.26
20190912,29.4,2.36,69.64
20190913,28.65,12.54,74.55
20190914,28.87,3.16,73.75
20190915,29.34,5.21,71.11
20190916,28.5,10.53,76.15
20190917,29.38,2.72,69.28
20190918,29.31,3.04,74.05
20190919,29.27,2.91,72.6
20190920,28.64,2.69,74.18
20190921,29.73,0.79,68.4
20190922,29.48,2.7,71.01
20190923,28.07,19.54,82.48
20190924,27.5,4.9,80.68
20190925,27.37,5.23,83.23
20190926,27.93,1.34,76.79
20190927,28.26,1.46,71.93
20190928,28.38,0.62,72.41
20190929,27.86,9.44,74.49
20190930,27.39,17.82,78.94
20191001,28.13,1.91,75.17
20191002,27.88,1.11,77.38
20191003,28.86,1.65,74.19
20191004,28.77,0.71,73.78
20191005,28.26,1.87,76.01
20191006,28.08,2.06,76.22
20191007,28.69,1.25,74.09
20191008,28.49,1.15,76.72
20191009,28.85,0.44,75.45
20191010,28.42,0.86,77.57
20191011,27.17,9.89,83.43
20191012,28.04,9.07,77.99
20191013,28.49,8.76,76.7
20191014,28.42,14.77,79.09
20191015,27.51,27.09,85.12
20191016,26.67,29.14,86.85
20191017,26.7,33.68,86.44
20191018,27.12,2.61,82.67
20191019,27.23,6.9,85.21
20191020,27.01,20.37,87.14
20191021,26.76,59.47,89.55
20191022,26.56,10.73,87.17
20191023,27.43,27.13,82.4
20191024,26.01,4.67,87.79
20191025,26.24,3.77,86.91
20191026,26.33,1.51,84.5
20191027,25.85,7.27,86.02
20191028,26.55,10.13,83.09
20191029,26.32,28.72,86.55
20191030,26.38,50.57,89.14
20191031,26.65,6.81,89.62
20191101,27.08,1.07,77.79
20191102,27.21,1.56,80.76
20191103,27.07,5.83,84.02
20191104,26.64,2.55,86.85
20191105,27.31,0.2,80.41
20191106,27.41,0.54,83.44
20191107,27.24,6.44,86.09
20191108,27.2,4.3,88.71
20191109,27.32,2.96,87.28
20191110,27.37,2.04,85.81
20191111,27.22,2.97,83.12
20191112,26.86,2.37,84.15
20191113,26.88,1.96,85.12
20191114,27.05,4.49,85.93
20191115,27.15,7.9,85.7
20191116,27.11,7.39,85.64
20191117,27.21,2.48,86.09
20191118,27.44,1.11,85.7
20191119,27.59,2.73,83.77
20191120,27.11,4.79,85.61
20191121,27.18,3.11,84.45
20191122,26.69,13.71,87.95
20191123,26.28,2.74,87.7
20191124,26.71,11.37,85.06
20191125,26.44,14.49,88.16
20191126,26.65,2.48,84.91
20191127,27.23,7.78,85.31
20191128,27.21,19.3,89.07
20191129,27.16,21.95,89.02
20191130,26.25,57.46,92.21
20191201,26.15,28.83,90.52
20191202,26.26,19.25,88.62
20191203,26.27,10.97,87.85
20191204,26.33,1.18,86.48
20191205,25.66,10.3,88.37
20191206,25.21,5.81,89.84
20191207,25.98,7.82,87.26
20191208,25.5,0.52,85.26
20191209,25.32,0.01,86.45
20191210,25.09,0.27,86.69
20191211,25.53,0.01,85.15
20191212,25.76,1.46,88.27
20191213,26.19,7.18,88.38
20191214,26.04,7.92,89.35
20191215,25.84,0.69,84.47
20191216,25.6,0.66,86.78
20191217,25.94,7.21,88.14
20191218,25.71,1.96,88.6
20191219,25.99,1.01,87.59
20191220,25.89,7.39,88.63
20191221,25.65,0.58,85.37
20191222,25.76,1.21,86.63
20191223,25.53,0.58,85.75
20191224,25.56,1.04,89.34
20191225,26.25,2.53,88.37
20191226,25.61,0.03,85.56
20191227,25.09,0.0,81.8
20191228,25.25,0.05,80.5
20191229,25.53,0.13,84.97
20191230,25.61,0.01,84.31
20191231,25.85,0.01,84.49
20200101,26.14,0.09,87.34
20200102,26.75,0.25,86.29
20200103,26.76,0.15,86.03
20200104,26.86,0.18,85.49
20200105,26.81,0.03,84.69
20200106,26.47,0.5,83.98
20200107,26.11,0.9,84.57
20200108,25.89,0.03,81.01
20200109,25.23,0.0,77.08
20200110,25.01,0.02,77.11
20200111,24.94,0.01,78.58
20200112,24.93,0.0,76.87
20200113,24.87,0.0,75.18
20200114,24.31,0.0,74.26
20200115,24.09,0.0,74.6
20200116,25.2,0.13,74.76
20200117,25.86,2.3,83.82
20200118,26.32,1.85,85.15
20200119,26.2,2.29,82.73
20200120,25.75,0.01,80.66
20200121,25.54,0.0,81.55
20200122,25.88,0.02,82.24
20200123,26.06,0.07,83.36
20200124,25.82,0.01,80.0
20200125,25.49,0.0,76.34
20200126,25.37,0.0,73.72
20200127,25.15,0.0,71.33
20200128,26.04,0.0,72.02
20200129,26.27,0.0,72.71
20200130,26.48,0.0,73.04
20200131,26.39,0.0,73.87
20200201,26.75,0.0,71.65
20200202,26.81,0.0,68.87
20200203,26.54,0.01,69.76
20200204,26.99,0.03,71.47
20200205,27.4,0.01,68.88
20200206,27.04,0.0,66.88
20200207,27.18,0.0,67.37
20200208,27.91,0.0,64.09
20200209,27.59,0.0,66.46
20200210,27.2,0.0,68.62
20200211,27.55,0.02,67.89
20200212,27.63,0.1,72.4
20200213,27.57,0.15,71.18
20200214,27.13,0.0,66.73
20200215,27.86,0.03,64.58
20200216,27.32,0.0,66.21
20200217,27.51,0.0,65.61
20200218,26.48,0.0,64.87
20200219,26.62,0.0,64.67
20200220,26.88,0.0,68.04
20200221,27.32,3.24,75.33
20200222,27.87,4.93,74.63
20200223,27.81,0.12,71.14
20200224,27.85,0.03,70.1
20200225,28.08,0.01,71.19
20200226,28.28,0.0,68.95
20200227,28.14,0.0,69.4
20200228,28.46,0.0,66.76
20200229,28.09,0.0,64.99
20200301,28.21,0.0,63.78
20200302,28.52,0.0,62.03
20200303,28.94,0.0,58.62
20200304,29.94,0.01,58.44
20200305,29.32,0.0,61.12
20200306,29.44,0.01,67.29
20200307,29.22,0.04,69.68
20200308,29.31,0.06,68.38
20200309,29.38,0.0,64.86
20200310,29.19,0.0,62.96
20200311,28.64,0.0,65.29
20200312,28.95,0.0,64.75
20200313,28.89,0.0,66.29
20200314,29.32,0.0,65.88
20200315,29.15,0.01,65.77
20200316,29.82,0.01,66.96
20200317,29.65,0.0,67.27
20200318,29.99,0.03,66.86
20200319,30.3,0.04,63.31
20200320,30.55,0.01,60.95
20200321,30.42,0.04,60.36
20200322,30.63,0.12,60.18
20200323,30.37,0.31,58.64
20200324,30.37,0.01,61.17
20200325,30.3,0.01,58.97
20200326,30.03,0.0,60.44
20200327,29.8,0.04,63.93
20200328,29.83,0.0,59.54
20200329,29.74,0.0,57.45
20200330,30.18,0.0,54.95
20200331,29.7,0.02,59.89
20200401,29.79,0.0,62.59
20200402,30.46,0.0,62.58
20200403,30.23,0.01,61.58
20200404,30.82,0.44,62.9
20200405,29.86,2.33,71.26
20200406,30.2,0.32,70.05
20200407,30.23,0.36,67.94
20200408,30.64,0.64,67.01
20200409,30.51,5.1,68.14
20200410,30.27,6.04,67.14
20200411,30.77,0.26,64.52
20200412,30.77,0.18,63.51
20200413,30.73,0.04,60.66
20200414,31.02,0.35,61.42
20200415,31.18,0.8,62.69
20200416,31.09,0.55,63.28
20200417,31.29,0.21,63.26
20200418,31.4,1.94,62.65
20200419,30.63,5.8,66.55
20200420,30.98,0.27,65.71
20200421,31.72,0.18,61.69
20200422,31.92,0.27,61.22
20200423,31.68,2.32,66.05
20200424,31.4,1.69,68.32
20200425,30.77,5.26,71.87
20200426,30.45,2.4,73.88
20200427,30.92,1.84,70.27
20200428,30.41,4.04,71.96
20200429,31.15,1.8,65.37
20200430,31.33,0.36,65.06
20200501,31.73,0.06,64.29
20200502,32.02,2.38,63.0
20200503,30.35,6.05,74.05
20200504,31.53,0.08,64.36
20200505,31.05,1.05,65.94
20200506,30.61,1.77,71.6
20200507,30.8,2.31,65.94
20200508,30.48,1.31,71.81
20200509,30.54,2.42,70.59
20200510,30.34,3.91,72.69
20200511,29.27,9.45,78.9
20200512,30.88,0.45,65.08
20200513,30.93,1.81,64.0
20200514,31.41,0.14,63.95
20200515,31.29,0.65,68.42
20200516,31.8,1.18,64.26
20200517,31.49,6.25,66.76
20200518,30.39,2.13,67.58
20200519,30.92,0.54,65.65
20200520,32.24,0.11,62.09
20200521,31.27,0.31,62.35
20200522,31.87,0.34,60.68
20200523,32.3,0.21,63.43
20200524,32.47,0.33,64.82
20200525,31.73,0.46,67.21
20200526,31.72,0.2,67.07
20200527,31.98,0.37,65.55
20200528,30.61,10.88,73.78
20200529,31.15,1.02,65.78
20200530,30.67,0.32,67.86
20200531,30.26,0.22,70.98
20200601,30.23,0.74,71.17
20200602,29.69,1.45,71.64
20200603,29.64,0.34,69.17
20200604,30.37,0.2,67.7
20200605,30.11,0.39,72.26
20200606,29.71,0.97,69.13
20200607,28.67,1.07,71.25
20200608,31.0,0.12,62.3
20200609,31.14,0.08,59.96
20200610,31.04,0.09,60.66
20200611,29.73,0.24,62.65
20200612,29.77,0.04,65.96
20200613,30.48,0.03,65.75
20200614,31.68,0.0,60.71
20200615,31.51,0.0,62.65
20200616,30.66,0.01,68.82
20200617,30.56,0.06,66.64
20200618,30.9,0.03,62.25
20200619,30.84,0.01,60.26
20200620,31.11,0.21,59.32
20200621,29.87,2.53,62.63
20200622,30.25,1.51,61.79
20200623,31.37,1.27,54.47
20200624,30.94,8.93,58.69
20200625,28.15,12.24,72.51
20200626,29.02,2.8,71.75
20200627,30.48,0.2,66.45
20200628,30.89,1.41,67.58
20200629,30.17,1.37,69.88
20200630,30.09,0.45,70.01
20200701,29.48,0.03,67.83
20200702,30.8,1.74,62.0
20200703,28.98,0.73,66.39
20200704,29.51,0.14,66.16
20200705,29.56,0.17,65.26
20200706,29.68,0.1,65.65
20200707,29.91,0.36,65.67
20200708,29.44,5.01,68.63
20200709,27.28,13.61,81.28
20200710,27.42,1.34,80.16
20200711,28.68,2.53,74.5
20200712,29.45,0.34,69.35
20200713,29.29,0.33,70.66
20200714,29.61,0.8,70.81
20200715,29.8,1.13,71.28
20200716,28.91,0.96,71.29
20200717,30.04,0.08,66.06
20200718,29.68,0.28,64.8
20200719,28.78,0.81,72.05
20200720,28.8,2.49,73.76
20200721,28.24,0.77,76.15
20200722,28.54,0.13,76.06
20200723,28.46,2.46,76.71
20200724,28.21,1.25,76.24
20200725,28.75,1.6,70.3
20200726,28.49,0.69,69.73
20200727,28.82,0.3,70.17
20200728,29.12,6.19,69.43
20200729,28.16,4.89,74.15
20200730,29.7,0.12,67.7
20200731,29.27,1.38,72.05
20200801,29.33,0.37,68.63
20200802,29.18,0.29,65.67
20200803,28.78,0.19,69.94
20200804,29.26,0.22,64.85
20200805,29.26,0.28,63.26
20200806,29.27,0.85,69.39
20200807,30.34,0.16,65.15
20200808,28.6,23.96,72.16
20200809,27.22,6.92,79.88
20200810,28.61,0.11,71.94
20200811,29.62,0.08,71.11
20200812,29.97,0.01,65.75
20200813,29.66,0.0,68.66
20200814,29.27,0.0,69.51
20200815,28.87,0.0,70.29
20200816,29.65,0.0,69.98
20200817,29.87,0.0,69.23
20200818,30.44,0.01,66.1
20200819,30.01,0.04,67.32
20200820,30.07,0.04,66.11
20200821,30.11,0.1,66.57
20200822,30.26,1.14,69.74
20200823,29.87,4.03,72.73
20200824,29.25,4.99,74.94
20200825,29.63,2.65,74.27
20200826,29.2,2.74,75.02
20200827,29.73,0.49,70.64
20200828,30.32,3.01,66.04
20200829,30.44,0.72,65.77
20200830,29.77,0.14,68.6
20200831,30.19,2.98,68.02
20200901,29.37,9.95,74.06
20200902,28.02,13.58,76.19
20200903,28.31,7.84,77.78
20200904,29.15,1.56,74.66
20200905,28.66,1.36,77.15
20200906,28.53,3.36,76.07
20200907,29.4,0.55,70.12
20200908,28.68,3.38,76.23
20200909,28.35,6.08,77.66
20200910,27.89,2.22,73.46
20200911,28.4,0.08,69.08
20200912,29.15,0.17,65.22
20200913,28.39,0.4,71.9
20200914,29.31,0.09,66.55
20200915,28.08,0.74,71.24
20200916,29.65,0.3,70.0
20200917,29.35,1.07,73.59
20200918,29.82,0.77,70.36
20200919,28.62,0.5,72.11
20200920,27.93,0.13,69.24
20200921,28.08,0.17,72.78
20200922,29.28,0.04,66.23
20200923,29.64,0.04,68.82
20200924,29.01,0.18,71.73
20200925,28.43,2.27,74.22
20200926,28.89,0.44,71.2
20200927,29.35,3.61,68.98
20200928,28.42,7.35,77.9
20200929,28.44,3.37,74.34
20200930,28.82,3.05,71.67
20201001,29.55,0.1,67.28
20201002,29.22,0.05,67.16
20201003,28.56,0.25,70.35
20201004,29.7,0.2,63.32
20201005,29.55,0.02,61.43
20201006,30.08,12.66,66.5
20201007,29.64,9.13,74.5
20201008,28.11,19.5,82.21
20201009,27.15,12.14,85.46
20201010,28.26,0.71,74.05
20201011,27.54,0.24,76.12
20201012,28.56,0.29,73.69
20201013,28.26,0.23,74.09
20201014,28.93,0.11,72.14
20201015,28.93,0.35,73.84
20201016,28.93,0.08,73.49
20201017,28.8,1.07,73.29
20201018,28.36,2.16,75.14
20201019,29.4,1.23,71.24
20201020,28.05,8.48,78.89
20201021,28.67,1.48,74.21
20201022,28.05,0.8,73.52
20201023,28.68,0.0,69.76
20201024,28.59,0.23,67.08
20201025,28.55,19.15,75.36
20201026,28.55,2.81,77.24
20201027,28.91,1.69,74.07
20201028,28.62,14.05,75.42
20201029,28.51,10.87,74.31
20201030,27.25,13.33,78.9
20201031,28.53,11.88,73.01
20201101,28.31,0.27,75.84
20201102,28.7,0.39,76.23
20201103,28.87,0.29,74.76
20201104,28.53,4.5,77.53
20201105,27.89,24.3,80.97
20201106,27.22,14.84,85.98
20201107,27.53,1.79,84.67
20201108,27.48,6.53,84.28
20201109,27.36,0.42,77.41
20201110,27.0,0.12,75.77
20201111,27.17,1.92,80.65
20201112,27.14,12.25,86.65
20201113,27.49,23.53,84.58
20201114,27.47,4.27,85.33
20201115,26.88,15.47,90.41
20201116,26.72,33.97,88.66
20201117,26.84,40.9,85.77
20201118,26.44,15.42,86.94
20201119,26.88,5.04,84.75
20201120,26.87,2.71,83.95
20201121,26.54,0.12,80.44
20201122,25.73,0.04,79.43
20201123,25.69,0.52,84.83
20201124,25.0,0.67,88.68
20201125,26.38,4.99,86.53
20201126,26.3,8.16,88.35
20201127,26.51,11.1,84.8
20201128,26.8,2.94,84.05
20201129,26.62,1.44,86.64
20201130,26.37,2.99,87.91
20201201,25.91,0.5,83.2
20201202,25.32,16.62,87.62
20201203,25.3,51.44,89.83
20201204,26.63,29.35,89.49
20201205,25.97,25.4,93.39
20201206,25.72,17.91,92.41
20201207,26.42,15.27,89.87
20201208,26.51,5.87,87.49
20201209,26.32,2.21,87.04
20201210,25.72,0.16,83.53
20201211,25.33,0.02,82.87
20201212,25.31,0.16,85.31
20201213,25.24,0.04,82.03
20201214,24.89,0.06,81.09
20201215,25.06,22.21,87.43
20201216,24.64,17.9,93.06
20201217,25.17,21.71,90.8
20201218,25.44,6.79,90.65
20201219,24.55,11.76,89.82
20201220,24.91,0.21,86.01
20201221,24.0,0.09,87.53
20201222,23.84,0.26,88.47
20201223,24.29,0.67,89.49
20201224,25.13,0.0,86.65
20201225,24.67,0.11,85.09
20201226,23.86,0.01,82.3
20201227,24.27,0.84,86.37
20201228,24.56,0.36,84.92
20201229,24.96,1.7,87.56
20201230,25.63,8.62,89.68
20201231,25.83,10.01,90.0
20210101,24.81,0.71,84.55
20210102,24.84,4.51,89.2
20210103,25.72,12.12,90.71
20210104,25.93,11.52,88.8
20210105,25.64,3.1,88.77
20210106,25.91,7.7,88.31
20210107,25.87,10.29,90.69
20210108,26.23,7.17,88.19
20210109,25.53,17.3,92.69
20210110,24.92,21.61,91.4
20210111,25.08,35.27,91.12
20210112,25.24,30.46,92.51
20210113,25.45,27.29,92.91
20210114,25.51,22.19,90.85
20210115,25.22,36.38,92.47
20210116,25.51,34.7,89.87
20210117,24.6,4.33,86.65
20210118,23.69,0.03,83.87
20210119,24.4,0.16,83.2
20210120,24.83,7.7,87.95
20210121,26.22,1.49,89.43
20210122,26.21,0.06,86.81
20210123,25.7,0.0,84.1
20210124,25.02,0.0,80.93
20210125,24.72,0.0,78.04
20210126,24.45,0.0,77.42
20210127,24.23,0.0,76.28
20210128,24.78,0.0,80.63
20210129,24.83,0.36,86.17
20210130,25.58,0.21,86.58
20210131,25.29,0.02,84.43
20210201,25.03,1.12,84.51
20210202,24.88,2.57,85.09
20210203,25.02,0.0,81.55
20210204,24.36,0.0,80.18
20210205,24.0,0.0,81.44
20210206,24.18,0.0,82.69
20210207,23.84,0.0,82.62
20210208,23.94,0.0,80.45
20210209,23.71,0.0,79.32
20210210,23.49,0.0,77.08
20210211,23.26,0.0,76.5
20210212,23.36,0.0,76.98
20210213,23.81,0.0,77.34
20210214,24.01,0.0,81.3
20210215,24.77,0.0,82.89
20210216,25.34,0.0,81.4
20210217,25.39,0.0,80.53
20210218,25.52,0.0,79.96
20210219,25.77,0.17,84.14
20210220,26.59,1.58,83.9
20210221,26.55,0.63,83.09
20210222,26.35,0.22,82.25
20210223,26.16,0.01,79.98
20210224,26.07,0.01,80.77
20210225,26.02,0.0,78.04
20210226,26.0,0.02,74.48
20210227,26.26,0.01,72.54
20210228,25.71,0.0,76.97
20210301,26.07,0.0,76.13
20210302,26.21,0.0,75.76
20210303,25.78,0.0,71.11
20210304,25.88,0.01,71.49
20210305,26.68,0.0,70.03
20210306,27.24,0.01,74.36
20210307,27.62,0.04,77.08
20210308,27.89,0.73,78.62
20210309,28.3,0.28,72.74
20210310,28.01,1.88,77.45
20210311,28.08,0.85,74.24
20210312,27.74,0.19,70.47
20210313,27.8,0.0,72.86
20210314,28.12,0.0,71.73
20210315,28.14,0.0,66.06
20210316,28.25,0.0,69.65
20210317,28.29,0.0,71.89
20210318,28.18,0.0,68.66
20210319,28.13,0.05,66.87
20210320,28.78,0.32,63.7
20210321,29.21,0.08,62.95
20210322,29.04,0.33,68.82
20210323,29.12,0.04,71.02
20210324,28.68,0.06,71.21
20210325,28.57,0.14,69.86
20210326,29.09,0.19,72.2
20210327,29.59,0.73,69.17
20210328,29.74,0.43,68.13
20210329,29.32,0.31,70.85
20210330,30.39,0.09,66.65
20210331,30.59,0.03,67.62
20210401,31.01,0.96,68.21
20210402,30.88,0.19,66.57
20210403,31.37,0.01,61.04
20210404,31.14,0.02,60.59
20210405,31.24,0.06,64.15
20210406,30.2,0.2,68.14
20210407,29.81,0.03,64.5
20210408,29.99,0.08,64.94
20210409,30.09,0.22,63.86
20210410,29.44,3.5,68.67
20210411,29.71,4.67,67.27
20210412,29.6,6.08,69.06
20210413,28.48,5.74,76.64
20210414,29.14,6.46,72.86
20210415,28.97,6.76,71.99
20210416,28.8,5.04,77.0
20210417,30.16,0.07,71.2
20210418,30.12,0.2,70.35
20210419,31.11,0.07,65.55
20210420,30.64,0.12,68.36
20210421,30.58,0.42,69.65
20210422,30.06,0.24,72.35
20210423,30.18,0.22,70.6
20210424,30.1,0.57,71.32
20210425,30.17,0.58,71.41
20210426,30.77,0.79,67.05
20210427,30.51,0.19,68.56
20210428,30.47,0.08,70.93
20210429,30.6,0.1,71.21
20210430,30.3,0.3,73.22
20210501,29.55,3.76,77.56
20210502,29.98,4.13,72.97
20210503,29.74,2.43,73.1
20210504,28.79,3.48,76.27
20210505,29.43,0.46,73.36
20210506,30.61,0.75,67.45
20210507,29.5,8.28,75.94
20210508,29.72,1.75,72.86
20210509,29.98,3.71,73.28
20210510,29.5,4.16,76.87
20210511,30.17,2.68,74.53
20210512,30.32,0.52,73.39
20210513,30.51,2.95,68.12
20210514,29.57,1.59,72.45
20210515,29.44,2.39,73.4
20210516,29.8,0.35,71.59
20210517,30.24,1.13,69.99
20210518,30.44,0.16,71.51
20210519,29.92,2.5,75.86
20210520,28.85,3.73,79.33
20210521,29.47,1.54,69.62
20210522,29.26,0.87,73.8
20210523,30.18,0.37,71.44
20210524,30.65,0.35,67.96
20210525,28.55,1.04,76.33
20210526,28.61,0.96,71.68
20210527,30.67,0.03,64.8
20210528,31.0,0.04,63.9
20210529,31.17,0.1,63.38
20210530,31.44,0.05,61.54
20210531,31.13,0.31,64.62
20210601,30.8,0.05,67.36
20210602,31.43,0.43,64.58
20210603,29.67,3.18,77.32
20210604,28.07,9.38,84.6
20210605,28.29,8.67,77.33
20210606,29.24,0.44,73.57
20210607,30.25,0.09,71.39
20210608,29.84,2.76,71.17
20210609,29.27,1.32,75.67
20210610,30.27,0.03,69.02
20210611,29.98,0.0,69.17
20210612,30.23,1.67,69.9
20210613,29.02,0.41,74.09
20210614,29.43,0.05,63.8
20210615,29.93,0.02,69.9
20210616,29.55,0.06,72.12
20210617,29.52,0.07,72.49
20210618,29.9,0.01,70.46
20210619,29.61,0.01,68.1
20210620,29.94,0.05,68.33
20210621,30.58,0.33,65.55
20210622,29.69,1.84,69.31
20210623,29.07,5.62,74.69
20210624,29.36,0.5,72.33
20210625,29.9,0.03,66.26
20210626,29.69,0.11,68.8
20210627,29.15,0.09,69.32
20210628,29.67,0.13,65.25
20210629,29.9,0.4,67.17
20210630,30.02,0.76,70.48
20210701,29.33,9.77,75.76
20210702,29.39,2.35,74.36
20210703,29.08,3.17,75.73
20210704,29.37,4.56,70.96
20210705,29.44,4.12,73.11
20210706,28.98,0.14,73.06
20210707,29.52,0.82,72.77
20210708,29.8,5.55,73.57
20210709,29.15,1.36,75.25
20210710,28.08,0.44,69.85
20210711,28.68,0.03,65.1
20210712,29.8,0.03,65.29
20210713,29.64,0.02,66.26
20210714,29.38,0.66,66.87
20210715,29.74,0.29,61.67
20210716,29.82,0.79,68.02
20210717,29.6,0.85,66.59
20210718,29.38,1.3,69.56
20210719,29.73,0.07,67.85
20210720,30.37,0.01,64.24
20210721,30.4,0.05,63.71
20210722,29.74,0.24,68.37
20210723,29.31,0.38,70.17
20210724,29.89,0.19,67.19
20210725,29.84,1.73,64.14
20210726,29.58,3.37,67.33
20210727,29.57,0.32,69.43
20210728,29.74,1.27,67.59
20210729,30.51,0.07,65.3
20210730,30.74,0.0,63.32
20210731,31.24,0.0,60.79
20210801,31.14,0.0,58.99
20210802,30.67,0.0,59.45
20210803,30.84,0.01,59.72
20210804,31.28,0.01,56.26
20210805,30.47,0.05,62.9
20210806,30.09,0.43,67.7
20210807,30.7,0.57,64.78
20210808,29.91,0.75,65.41
20210809,28.93,10.23,69.52
20210810,30.02,0.6,64.3
20210811,30.03,1.42,63.19
20210812,28.82,0.57,66.56
20210813,29.82,0.21,62.03
20210814,29.89,2.69,64.39
20210815,29.63,2.83,65.47
20210816,30.0,0.15,61.5
20210817,29.33,3.31,65.82
20210818,27.8,0.8,68.76
20210819,30.01,0.77,60.9
20210820,29.8,0.54,62.49
20210821,28.07,2.37,70.9
20210822,28.36,2.79,73.31
20210823,28.72,2.53,71.51
20210824,29.32,0.61,67.97
20210825,29.55,1.04,68.91
20210826,30.11,0.61,68.53
20210827,29.18,0.24,72.95
20210828,28.58,1.38,72.89
20210829,28.53,0.72,71.18
20210830,29.58,0.07,65.16
20210831,29.78,3.83,68.8
20210901,29.02,6.23,73.43
20210902,27.97,16.83,77.37
20210903,27.75,2.64,75.54
20210904,28.71,2.71,73.74
20210905,29.06,3.43,72.96
20210906,29.5,0.1,64.4
20210907,29.39,0.12,69.58
20210908,29.5,0.04,69.16
20210909,29.58,0.03,67.31
20210910,30.2,0.08,65.01
20210911,30.1,0.02,66.65
20210912,29.6,0.08,69.18
20210913,30.12,0.25,68.17
20210914,29.87,0.35,70.66
20210915,29.53,8.18,74.56
20210916,28.87,2.72,76.28
20210917,28.52,16.87,77.94
20210918,28.71,16.16,77.79
20210919,29.16,0.85,74.3
20210920,29.34,1.69,72.91
20210921,29.9,0.1,69.57
20210922,30.0,0.66,66.91
20210923,29.92,5.32,72.01
20210924,28.84,21.28,75.25
20210925,28.22,12.87,81.29
20210926,27.98,0.52,77.19
20210927,27.21,1.39,81.04
20210928,27.94,0.23,72.37
20210929,29.08,0.55,68.53
20210930,28.72,17.0,70.88
20211001,27.12,16.68,84.16
20211002,27.28,10.41,83.09
20211003,27.82,8.01,82.08
20211004,27.97,11.71,81.72
20211005,27.45,9.59,84.74
20211006,27.39,3.96,84.32
20211007,27.9,0.62,81.93
20211008,28.16,3.68,83.03
20211009,27.91,2.52,83.81
20211010,28.21,3.07,82.94
20211011,28.03,6.57,79.43
20211012,27.19,1.08,80.06
20211013,28.59,0.08,75.49
20211014,28.59,2.38,79.94
20211015,28.46,2.44,80.73
20211016,28.08,3.99,85.99
20211017,28.09,5.11,83.4
20211018,28.44,1.08,80.69
20211019,28.01,1.25,81.08
20211020,27.75,6.63,84.7
20211021,27.6,5.5,83.58
20211022,27.67,5.0,82.83
20211023,27.94,2.39,79.98
20211024,27.57,4.3,77.9
20211025,27.77,12.13,78.71
20211026,27.67,3.23,79.51
20211027,27.42,8.06,80.97
20211028,26.57,11.81,85.28
20211029,26.03,26.13,89.91
20211030,26.65,21.57,86.69
20211031,26.56,14.56,88.6
20211101,26.68,13.62,88.88
20211102,26.93,23.11,85.58
20211103,26.52,28.38,87.38
20211104,26.71,9.74,81.31
20211105,26.25,5.18,88.27
20211106,26.28,24.57,87.16
20211107,26.43,14.44,85.71
20211108,25.82,24.08,88.6
20211109,24.74,22.53,90.71
20211110,24.87,3.39,87.67
20211111,26.14,2.25,86.16
20211112,27.0,4.08,86.34
20211113,26.66,5.14,88.56
20211114,26.22,2.45,90.11
20211115,26.97,1.89,86.82
20211116,26.95,5.2,88.42
20211117,26.48,25.95,90.59
20211118,26.26,9.23,88.41
20211119,26.6,2.58,87.72
20211120,27.01,1.33,87.03
20211121,26.56,0.02,80.25
20211122,26.4,4.18,86.18
20211123,26.26,12.42,90.95
20211124,26.16,8.17,89.1
20211125,25.98,79.03,90.75
20211126,26.23,13.09,91.87
20211127,25.44,23.56,92.3
20211128,26.23,22.08,90.57
20211129,26.14,29.12,89.09
20211130,26.27,16.42,89.53
20211201,26.85,2.77,84.93
20211202,26.6,2.38,86.83
20211203,25.51,0.3,82.86
20211204,26.58,0.8,80.93
20211205,27.2,3.37,83.09
20211206,27.22,3.79,83.14
20211207,26.65,1.04,84.82
20211208,26.52,0.41,85.39
20211209,25.87,6.69,88.49
20211210,26.25,0.76,84.88
20211211,26.49,3.59,86.75
20211212,26.46,7.86,86.6
20211213,26.15,5.18,87.1
20211214,26.22,2.29,85.86
20211215,25.94,3.63,88.06
20211216,25.45,2.29,88.21
20211217,24.93,0.99,87.05
20211218,24.73,0.11,86.39
20211219,24.17,0.0,84.62
20211220,24.23,0.0,83.9
20211221,24.4,0.0,81.77
20211222,24.33,0.0,81.16
20211223,23.45,0.0,79.39
20211224,23.58,0.0,80.49
20211225,24.06,0.0,80.01
20211226,24.32,0.0,80.61
20211227,24.64,0.05,81.49
20211228,25.01,0.05,80.72
20211229,24.77,0.01,81.36
20211230,24.98,9.3,87.53
20211231,26.05,10.38,88.36
20220101,26.24,18.58,88.73
20220102,25.67,14.45,88.27
20220103,25.0,2.16,85.17
20220104,24.81,0.04,84.08
20220105,24.39,0.07,83.8
20220106,25.38,0.17,87.15
20220107,25.42,0.32,87.43
20220108,25.33,0.05,83.9
20220109,24.93,0.02,84.0
20220110,25.46,0.03,84.58
20220111,25.57,0.15,84.6
20220112,25.91,0.02,84.92
20220113,26.38,0.0,83.54
20220114,26.55,0.0,82.13
20220115,26.44,0.0,83.97
20220116,26.26,0.11,83.82
20220117,26.19,1.89,82.15
20220118,25.4,0.79,80.05
20220119,25.19,0.02,80.13
20220120,24.72,0.0,76.13
20220121,25.62,0.0,72.61
20220122,26.5,0.0,76.45
20220123,27.02,0.0,80.2
20220124,26.85,0.0,81.73
20220125,26.31,0.0,79.52
20220126,25.89,0.07,75.66
20220127,26.01,0.0,73.63
20220128,26.0,0.03,75.29
20220129,26.14,0.09,81.71
20220130,26.5,0.22,81.22
20220131,26.68,0.03,79.7
20220201,26.42,0.0,77.67
20220202,25.12,0.0,72.26
20220203,24.98,0.0,68.85
20220204,26.72,0.0,67.6
20220205,27.13,0.0,73.17
20220206,26.96,0.0,73.29
20220207,26.64,0.0,72.43
20220208,25.73,0.0,70.05
20220209,25.2,0.0,69.95
20220210,26.1,0.16,74.78
20220211,26.58,3.18,81.01
20220212,25.87,8.04,82.99
20220213,26.06,1.77,76.87
20220214,26.5,1.14,73.3
20220215,26.05,1.82,70.85
20220216,26.16,0.0,66.85
20220217,26.23,0.0,68.55
20220218,26.89,0.02,71.84
20220219,27.19,0.07,73.69
20220220,27.79,0.06,72.9
20220221,28.48,0.03,71.16
20220222,28.0,0.04,70.29
20220223,27.52,1.02,68.45
20220224,27.04,2.14,69.37
20220225,27.2,0.0,66.0
20220226,27.33,2.49,74.06
20220227,27.55,2.46,70.91
20220228,27.36,0.04,68.06
20220301,27.7,0.0,65.05
20220302,27.49,0.0,64.03
20220303,27.59,0.01,67.94
20220304,27.68,1.37,69.61
20220305,27.96,0.01,69.06
20220306,28.14,0.75,70.29
20220307,28.18,2.31,72.03
20220308,28.04,8.54,72.4
20220309,28.29,0.07,68.94
20220310,28.16,0.0,66.14
20220311,28.11,0.01,68.54
20220312,28.11,0.05,65.16
20220313,28.32,0.01,66.57
20220314,28.67,0.0,65.37
20220315,27.77,0.0,65.69
20220316,29.43,0.01,57.93
20220317,29.54,0.11,64.51
20220318,30.0,0.04,64.86
20220319,30.08,0.07,66.61
20220320,30.84,0.33,63.15
20220321,31.03,0.21,62.79
20220322,30.1,0.29,65.88
20220323,30.31,1.28,69.4
20220324,30.07,0.39,69.35
20220325,29.83,0.33,68.28
20220326,30.03,0.95,66.57
20220327,30.12,0.66,67.03
20220328,29.95,0.11,69.08
20220329,30.21,0.12,70.02
20220330,29.96,0.11,70.82
20220331,30.22,0.04,68.28
20220401,29.97,0.07,70.15
20220402,30.18,0.18,67.79
20220403,29.18,8.59,72.99
20220404,29.49,2.44,70.41
20220405,29.95,1.24,65.52
20220406,28.84,3.62,71.61
20220407,29.88,1.66,66.76
20220408,29.67,8.04,68.78
20220409,28.98,4.77,71.38
20220410,29.14,23.37,70.28
20220411,29.0,14.42,75.51
20220412,28.05,8.87,81.3
20220413,27.8,14.7,81.82
20220414,28.23,1.09,73.88
20220415,29.52,0.76,74.4
20220416,29.96,1.43,75.05
20220417,29.71,4.64,76.55
20220418,29.94,4.47,74.57
20220419,30.59,1.05,67.46
20220420,30.03,0.11,73.17
20220421,29.34,0.18,77.25
20220422,28.96,9.45,77.49
20220423,29.02,4.84,72.51
20220424,29.92,0.65,68.69
20220425,30.03,0.24,71.43
20220426,29.93,0.07,70.82
20220427,30.28,0.09,70.59
20220428,29.54,0.38,75.69
20220429,30.06,0.4,76.26
20220430,30.9,0.14,72.06
20220501,30.99,0.26,70.9
20220502,31.13,0.28,69.93
20220503,30.98,0.21,72.17
20220504,30.72,1.1,73.1
20220505,30.79,0.3,71.53
20220506,30.3,1.03,64.53
20220507,30.88,2.85,64.97
20220508,31.71,0.13,65.03
20220509,31.16,0.33,67.81
20220510,30.4,0.11,66.66
20220511,30.84,0.11,67.06
20220512,30.86,0.05,65.46
20220513,30.97,0.09,64.29
20220514,29.96,3.55,69.02
20220515,29.62,1.25,71.11
20220516,29.34,9.59,75.47
20220517,29.63,2.7,75.25
20220518,29.88,0.61,72.08
20220519,29.52,0.65,71.82
20220520,29.47,0.19,72.66
20220521,30.12,0.07,71.97
20220522,30.81,0.16,66.73
20220523,30.3,0.34,71.36
20220524,30.14,1.52,73.64
20220525,30.26,0.65,73.81
20220526,29.76,1.06,70.6
20220527,29.92,0.86,66.86
20220528,29.89,5.13,70.15
20220529,29.14,5.14,74.24
20220530,29.96,0.89,69.39
20220531,29.77,0.2,67.39
20220601,29.04,0.36,71.32
20220602,30.12,0.13,69.07
20220603,30.13,0.07,67.67
20220604,29.89,0.06,69.56
20220605,29.98,5.05,72.79
20220606,28.9,18.72,79.94
20220607,28.55,7.68,78.54
20220608,29.38,0.1,73.49
20220609,29.45,0.07,72.63
20220610,29.52,0.17,73.38
20220611,29.2,0.52,72.54
20220612,28.21,1.53,73.11
20220613,29.44,0.19,65.14
20220614,30.38,1.02,66.37
20220615,29.14,5.18,72.29
20220616,27.22,7.13,79.66
20220617,27.56,4.15,79.52
20220618,28.51,1.9,74.99
20220619,28.72,1.0,74.53
20220620,29.61,0.05,68.66
20220621,29.57,0.33,66.93
20220622,29.09,0.44,69.92
20220623,29.6,0.16,67.93
20220624,29.77,0.03,66.42
20220625,29.31,0.03,68.38
20220626,30.11,0.01,59.7
20220627,30.49,0.02,66.49
20220628,29.68,0.03,66.49
20220629,30.45,0.03,63.1
20220630,29.56,0.44,67.59
20220701,29.97,0.06,65.63
20220702,29.81,0.94,65.23
20220703,28.74,1.3,71.82
20220704,29.74,0.09,62.64
20220705,29.59,0.05,62.11
20220706,29.7,0.03,61.11
20220707,28.92,0.23,65.54
20220708,29.6,0.1,60.89
20220709,29.02,0.03,63.5
20220710,29.18,0.03,62.45
20220711,29.28,13.53,61.9
20220712,29.27,0.22,63.71
20220713,29.64,0.25,65.22
20220714,29.57,0.22,66.07
20220715,29.49,0.07,66.83
20220716,29.38,0.18,69.94
20220717,29.61,4.55,70.74
20220718,29.82,0.67,65.78
20220719,29.89,2.95,64.0
20220720,29.7,1.14,70.93
20220721,29.43,2.77,70.56
20220722,29.13,11.63,73.18
20220723,28.56,9.77,73.94
20220724,28.82,4.65,68.17
20220725,29.7,4.61,68.96
20220726,27.07,9.11,82.36
20220727,27.64,19.54,80.1
20220728,28.55,4.11,73.37
20220729,29.02,6.66,70.92
20220730,28.71,5.94,75.35
20220731,28.73,10.08,78.18
20220801,27.86,10.95,80.32
20220802,27.51,1.68,81.23
20220803,26.88,2.21,85.48
20220804,26.97,2.88,82.01
20220805,27.9,0.08,75.49
20220806,27.7,0.28,76.95
20220807,27.79,0.14,75.82
20220808,28.14,0.15,74.55
20220809,28.19,0.06,74.65
20220810,28.63,0.01,71.65
20220811,29.16,0.0,69.57
20220812,29.75,0.0,66.42
20220813,29.59,0.0,66.31
20220814,29.19,0.01,66.06
20220815,29.45,0.06,69.0
20220816,28.98,0.13,74.83
20220817,29.32,0.59,74.1
20220818,29.05,16.64,75.58
20220819,29.41,4.6,73.76
20220820,29.39,1.06,71.9
20220821,29.55,0.83,68.27
20220822,28.93,6.83,73.01
20220823,28.92,3.71,71.74
20220824,27.66,1.92,75.72
20220825,26.75,0.74,80.79
20220826,27.25,9.08,77.76
20220827,25.96,4.04,82.06
20220828,27.97,1.48,74.29
20220829,28.27,2.71,76.15
20220830,28.19,7.36,77.19
20220831,27.18,5.59,82.03
20220901,27.66,7.11,76.71
20220902,27.98,1.87,75.96
20220903,28.54,0.45,76.32
20220904,28.25,5.51,80.7
20220905,28.27,4.19,80.56
20220906,28.08,2.38,75.6
20220907,27.3,2.19,78.99
20220908,27.39,0.02,76.05
20220909,27.9,0.01,76.37
20220910,28.57,0.03,75.55
20220911,28.81,0.05,73.51
20220912,29.16,0.01,72.12
20220913,28.91,0.08,72.82
20220914,28.86,1.72,72.42
20220915,29.08,0.66,72.99
20220916,29.32,0.03,70.97
20220917,29.59,0.19,71.22
20220918,29.38,2.73,69.83
20220919,28.96,1.3,72.7
20220920,29.22,0.06,69.24
20220921,29.82,0.04,65.99
20220922,30.1,0.01,64.13
20220923,29.98,0.01,62.51
20220924,30.0,0.13,62.97
20220925,29.86,4.61,67.68
20220926,29.68,3.14,69.37
20220927,30.1,1.4,67.8
20220928,29.68,3.03,68.49
20220929,28.92,0.83,69.48
20220930,29.02,0.31,69.78
20221001,29.12,0.07,65.08
20221002,29.38,0.63,62.37
20221003,29.48,1.78,65.59
20221004,29.53,0.47,67.48
20221005,28.82,0.38,68.7
20221006,28.62,0.02,65.83
20221007,29.32,0.38,64.79
20221008,29.82,12.1,65.12
20221009,27.48,21.09,79.22
20221010,27.96,14.29,78.7
20221011,28.75,4.82,74.86
20221012,28.17,5.12,78.08
20221013,28.13,7.62,78.85
20221014,28.31,13.08,78.3
20221015,26.89,16.6,82.82
20221016,27.94,3.22,79.92
20221017,27.51,2.1,83.62
20221018,27.33,11.0,83.03
20221019,27.11,11.01,81.82
20221020,27.68,19.52,81.23
20221021,26.84,28.15,81.69
20221022,27.09,2.33,81.65
20221023,27.53,5.33,78.95
20221024,26.55,9.0,87.1
20221025,27.72,2.52,81.94
20221026,27.46,7.26,79.45
20221027,27.17,0.78,74.32
20221028,27.27,0.09,78.29
20221029,27.06,4.72,82.58
20221030,26.75,5.97,86.8
20221031,26.45,6.97,87.08
20221101,25.47,5.77,89.24
20221102,25.73,32.37,86.38
20221103,25.62,18.62,90.31
20221104,25.78,9.9,86.85
20221105,25.9,12.77,86.79
20221106,26.12,3.47,87.31
20221107,26.59,2.72,84.57
20221108,26.55,2.28,85.8
20221109,26.35,1.95,86.7
20221110,26.51,2.92,84.21
20221111,24.77,19.28,90.08
20221112,25.2,17.93,91.89
20221113,26.1,2.99,88.36
20221114,25.82,17.28,87.33
20221115,25.6,3.42,89.98
20221116,26.21,1.31,85.07
20221117,25.43,0.02,79.13
20221118,24.66,0.01,79.43
20221119,24.21,0.01,81.82
20221120,23.7,0.0,77.39
20221121,25.13,0.0,72.91
20221122,25.94,0.0,76.98
20221123,26.73,0.0,81.15
20221124,26.54,0.0,81.22
20221125,26.54,0.0,81.23
20221126,26.69,0.37,80.92
20221127,26.77,2.09,82.89
20221128,26.71,7.37,81.72
20221129,26.31,12.76,83.25
20221130,25.45,0.78,80.89
20221201,26.12,5.26,86.59
20221202,26.73,3.33,85.06
20221203,26.4,5.32,87.18
20221204,26.3,15.58,85.54
20221205,26.18,2.82,87.31
20221206,25.99,0.07,83.17
20221207,24.41,0.01,82.84
20221208,23.6,7.56,77.53
20221209,23.21,65.29,85.49
20221210,25.36,32.01,83.63
20221211,26.31,2.0,87.36
20221212,26.46,1.44,85.59
20221213,26.37,1.16,82.05
20221214,25.91,2.51,85.48
20221215,25.5,0.15,84.54
20221216,25.33,0.03,84.35
20221217,25.52,0.47,85.52
20221218,25.41,0.47,83.55
20221219,24.67,2.48,86.96
20221220,24.78,3.81,88.84
20221221,24.57,69.81,90.19
20221222,24.52,19.85,88.43
20221223,24.94,0.05,87.13
20221224,25.86,0.36,87.28
20221225,25.8,4.58,89.6
20221226,26.13,4.99,89.09
20221227,26.09,9.56,86.8
20221228,25.9,1.12,85.82
20221229,25.74,0.07,83.66
20221230,25.09,0.02,82.4
20221231,24.95,0.0,82.63
20230101,24.78,0.0,82.82
20230102,24.57,0.03,80.59
20230103,24.58,0.09,81.02
20230104,24.72,0.0,79.36
20230105,24.81,0.12,83.15
20230106,24.81,1.05,84.9
20230107,24.89,0.58,84.46
20230108,25.08,0.07,82.09
20230109,24.43,0.0,79.65
20230110,23.52,0.01,78.58
20230111,24.03,0.01,76.24
20230112,23.79,0.0,75.6
20230113,23.58,0.0,76.62
20230114,23.14,0.0,79.29
20230115,23.28,0.0,81.3
20230116,24.07,0.01,81.53
20230117,24.21,0.05,81.18
20230118,23.86,0.03,78.21
20230119,23.95,0.01,71.78
20230120,24.23,0.04,77.45
20230121,24.94,0.09,79.09
20230122,24.64,0.13,80.5
20230123,25.36,3.09,83.98
20230124,25.27,4.99,84.25
20230125,25.04,0.01,77.09
20230126,24.67,0.0,75.17
20230127,24.74,0.0,77.25
20230128,24.85,0.0,75.26
20230129,25.24,0.09,79.67
20230130,26.13,0.84,81.06
20230131,25.58,0.6,81.3
20230201,24.91,4.37,79.14
20230202,25.34,21.34,85.93
20230203,25.67,4.87,86.0
20230204,25.95,4.57,83.55
20230205,25.35,0.06,77.74
20230206,24.78,0.39,79.12
20230207,25.63,0.03,77.85
20230208,25.74,0.3,79.21
20230209,25.53,0.01,78.13
20230210,25.53,0.0,76.08
20230211,25.43,0.0,71.39
20230212,25.5,0.0,69.06
20230213,25.41,0.0,71.69
20230214,25.61,0.0,72.33
20230215,25.71,0.0,68.71
20230216,25.45,0.0,73.13
20230217,25.51,0.01,71.7
20230218,26.39,0.0,70.74
20230219,27.12,0.0,72.53
20230220,27.29,0.0,71.3
20230221,26.83,0.0,65.69
20230222,26.62,0.0,60.87
20230223,26.33,0.01,64.93
20230224,27.15,0.0,66.53
20230225,26.81,0.0,64.96
20230226,26.36,0.0,65.36
20230227,26.7,0.0,63.35
20230228,27.44,3.33,73.93
20230301,27.81,4.23,72.28
20230302,27.73,0.01,66.79
20230303,27.06,0.0,62.12
20230304,27.72,0.15,70.22
20230305,27.98,0.33,72.22
20230306,28.12,0.05,67.91
20230307,27.66,0.06,71.79
20230308,27.83,0.02,71.98
20230309,27.94,0.0,68.04
20230310,28.01,0.0,68.78
20230311,27.78,0.01,70.82
20230312,28.27,0.05,71.88
20230313,28.63,0.04,68.13
20230314,28.38,0.02,69.63
20230315,28.69,0.06,69.28
20230316,28.68,0.43,71.61
20230317,29.22,0.76,68.79
20230318,29.33,0.92,69.41
20230319,29.44,5.56,70.39
20230320,29.09,10.56,75.01
20230321,29.79,7.29,70.2
20230322,29.6,2.69,70.69
20230323,29.86,0.48,63.71
20230324,30.03,0.66,66.75
20230325,30.02,0.39,65.58
20230326,30.19,0.36,62.78
20230327,30.83,0.18,61.09
20230328,30.23,2.5,67.65
20230329,30.12,0.81,68.48
20230330,30.31,0.06,64.52
20230331,30.41,0.27,64.22
20230401,30.37,0.14,66.38
20230402,30.48,0.37,64.45
20230403,30.4,0.57,66.3
20230404,29.3,0.95,70.51
20230405,30.02,0.19,65.39
20230406,29.72,0.21,68.42
20230407,30.43,0.27,63.52
20230408,30.13,0.17,64.64
20230409,29.67,0.51,68.28
20230410,29.94,0.06,67.09
20230411,30.22,0.16,67.8
20230412,30.56,0.0,64.19
20230413,30.86,0.01,58.98
20230414,30.62,0.0,59.82
20230415,30.91,0.03,64.19
20230416,30.85,0.01,62.14
20230417,30.54,0.01,63.96
20230418,31.15,0.0,61.86
20230419,31.36,0.01,65.46
20230420,31.7,0.01,65.85
20230421,31.8,2.57,65.72
20230422,31.54,1.81,66.34
20230423,31.77,3.53,65.46
20230424,29.83,14.04,76.98
20230425,29.74,4.22,74.09
20230426,29.64,6.67,70.57
20230427,30.78,3.61,65.86
20230428,30.4,3.36,67.87
20230429,30.29,10.04,70.62
20230430,29.6,11.48,74.43
20230501,29.05,13.06,76.86
20230502,28.56,22.0,81.87
20230503,28.73,23.29,79.05
20230504,27.71,31.14,84.18
20230505,28.42,7.41,77.73
20230506,28.12,5.6,79.99
20230507,27.4,2.58,80.54
20230508,27.13,2.95,82.95
20230509,28.29,0.88,78.42
20230510,29.4,0.24,75.81
20230511,29.5,0.38,78.18
20230512,29.31,0.22,78.71
20230513,29.23,0.01,77.96
20230514,30.17,0.06,76.72
20230515,30.62,0.03,75.74
20230516,30.33,0.04,77.82
20230517,30.3,0.04,75.35
20230518,29.55,0.05,79.8
20230519,29.82,0.06,77.39
20230520,30.21,0.1,75.59
20230521,29.75,0.18,75.93
20230522,29.52,0.44,78.37
20230523,30.1,0.05,74.93
20230524,30.35,0.45,73.27
20230525,30.83,0.19,70.99
20230526,31.24,1.48,69.4
20230527,31.25,3.54,67.7
20230528,31.22,0.43,69.96
20230529,30.59,1.3,74.85
20230530,31.08,0.66,70.88
20230531,30.21,0.83,71.53
20230601,30.85,0.1,69.34
20230602,30.26,0.1,70.73
20230603,30.64,0.07,69.06
20230604,30.45,0.03,70.71
20230605,29.79,2.54,75.12
20230606,30.02,6.5,72.88
20230607,29.76,2.17,77.17
20230608,29.99,0.09,72.29
20230609,30.8,0.09,68.95
20230610,31.27,0.03,65.47
20230611,31.19,0.0,65.41
20230612,30.92,1.15,68.28
20230613,30.48,0.2,70.66
20230614,30.04,0.1,68.2
20230615,32.04,0.04,58.8
20230616,32.09,0.06,60.8
20230617,30.44,0.13,67.89
20230618,29.64,0.87,69.45
20230619,30.62,0.02,64.49
20230620,30.9,0.11,63.51
20230621,30.34,0.92,68.37
20230622,30.59,0.82,66.34
20230623,30.78,0.3,63.05
20230624,30.71,0.04,62.8
20230625,29.94,0.06,67.17
20230626,30.36,0.01,62.47
20230627,29.27,0.22,67.73
20230628,30.22,0.04,66.4
20230629,30.74,2.64,64.78
20230630,30.55,0.42,66.4
20230701,30.91,0.17,61.9
20230702,29.67,10.31,67.76
20230703,28.87,1.61,70.75
20230704,29.52,0.04,66.97
20230705,29.43,0.31,68.0
20230706,29.29,0.07,69.59
20230707,29.68,0.02,65.32
20230708,30.28,0.3,65.15
20230709,30.61,0.43,60.47
20230710,30.07,6.4,68.69
20230711,29.29,15.35,74.28
20230712,30.1,0.8,67.6
20230713,30.18,0.43,62.16
20230714,30.39,1.63,61.08
20230715,30.44,0.3,64.96
20230716,30.85,0.27,63.52
20230717,30.67,0.03,65.43
20230718,30.59,0.01,66.1
20230719,30.25,0.01,65.4
20230720,30.26,0.03,62.88
20230721,30.53,0.02,62.27
20230722,29.92,0.01,62.05
20230723,29.09,0.42,64.7
20230724,29.0,0.03,66.93
20230725,29.45,0.08,67.35
20230726,30.12,0.2,65.49
20230727,31.28,0.01,59.29
20230728,31.38,0.0,56.09
20230729,31.73,0.0,56.03
20230730,31.89,0.0,55.17
20230731,31.74,0.0,56.86
20230801,31.91,0.0,56.62
20230802,31.47,0.0,57.47
20230803,31.79,0.0,58.79
20230804,32.12,0.14,57.54
20230805,31.89,0.06,56.12
20230806,31.91,2.45,57.31
20230807,31.37,0.82,62.43
20230808,31.13,8.09,63.26
20230809,29.89,6.74,70.52
20230810,29.72,3.3,71.27
20230811,29.84,4.55,71.49
20230812,30.71,7.17,68.91
20230813,30.77,0.78,66.56
20230814,30.5,0.25,64.69
20230815,30.24,2.11,64.98
20230816,30.32,0.08,62.26
20230817,30.82,0.0,62.11
20230818,30.74,0.01,62.81
20230819,30.79,0.02,62.99
20230820,31.24,0.01,60.73
20230821,31.1,0.03,62.84
20230822,30.29,1.12,70.3
20230823,30.71,0.96,69.53
20230824,31.2,0.02,62.26
20230825,30.67,0.01,63.99
20230826,31.08,0.0,61.94
20230827,31.65,0.01,62.61
20230828,31.45,1.47,63.72
20230829,29.05,4.15,73.92
20230830,27.94,10.45,78.68
20230831,29.8,1.58,70.96
20230901,29.9,1.37,69.31
20230902,29.81,8.29,71.38
20230903,27.87,12.51,77.29
20230904,29.18,0.68,70.13
20230905,29.09,0.2,67.69
20230906,29.23,0.74,69.56
20230907,29.48,2.76,66.82
20230908,29.84,2.65,65.66
20230909,30.5,0.57,64.62
20230910,29.62,0.3,62.69
20230911,29.04,0.14,65.88
20230912,29.52,0.17,66.1
20230913,29.91,0.21,68.58
20230914,30.15,1.0,66.25
20230915,29.59,0.74,68.4
20230916,29.51,0.57,71.08
20230917,28.55,3.07,76.85
20230918,28.18,17.19,79.86
20230919,28.58,5.07,77.2
20230920,29.44,1.55,71.54
20230921,29.1,1.45,73.31
20230922,29.35,1.41,72.45
20230923,29.83,1.54,72.09
20230924,28.96,0.93,73.53
20230925,29.65,1.47,70.38
20230926,29.7,1.45,69.17
20230927,29.16,6.58,70.77
20230928,28.87,1.9,70.96
20230929,28.78,1.53,73.38
20230930,29.3,0.69,69.2
20231001,29.44,0.55,71.42
20231002,29.21,0.91,74.88
20231003,29.73,0.57,71.3
20231004,29.8,0.69,70.78
20231005,29.57,4.07,71.97
20231006,29.92,0.94,72.4
20231007,29.88,0.52,71.76
20231008,29.62,1.24,73.84
20231009,29.21,0.79,75.16
20231010,29.17,0.86,75.12
20231011,29.38,4.84,73.6
20231012,28.4,20.71,78.22
20231013,28.84,1.63,74.21
20231014,28.43,4.58,76.05
20231015,28.67,17.36,76.12
20231016,28.37,13.74,78.71
20231017,27.69,6.46,82.9
20231018,27.95,2.47,80.76
20231019,28.4,1.06,75.9
20231020,28.45,0.77,74.27
20231021,28.87,1.15,69.84
20231022,28.73,3.35,75.12
20231023,28.17,0.81,74.98
20231024,28.22,2.15,71.75
20231025,28.36,3.66,75.58
20231026,29.27,0.22,69.51
20231027,29.05,0.41,71.47
20231028,28.54,1.74,74.29
20231029,27.58,13.98,81.91
20231030,26.92,15.48,83.64
20231031,27.7,4.22,80.77
20231101,27.53,6.27,81.88
20231102,27.26,12.69,83.21
20231103,27.53,25.8,84.82
20231104,25.87,40.28,89.99
20231105,26.52,15.25,83.4
20231106,27.65,18.52,80.87
20231107,26.9,34.66,86.5
20231108,26.62,21.94,87.4
20231109,26.93,20.27,82.07
20231110,27.16,10.06,85.1
20231111,26.88,10.57,90.09
20231112,26.92,1.32,84.37
20231113,26.19,2.89,88.27
20231114,26.34,6.91,86.33
20231115,26.37,1.5,86.8
20231116,27.44,0.58,85.73
20231117,27.49,1.86,87.26
20231118,26.82,9.3,90.43
20231119,26.55,19.27,89.05
20231120,27.17,1.77,84.99
20231121,27.07,1.04,87.53
20231122,26.73,31.22,88.38
20231123,26.74,6.25,84.7
20231124,27.11,2.65,84.49
20231125,26.88,8.86,89.97
20231126,26.8,9.98,91.51
20231127,27.28,4.98,86.97
20231128,27.26,5.54,86.11
20231129,26.79,10.72,87.91
20231130,26.07,8.87,90.07
20231201,25.91,4.02,91.44
20231202,26.67,0.64,87.26
20231203,27.36,0.36,85.82
20231204,27.57,1.35,89.34
20231205,27.83,0.81,88.8
20231206,27.29,0.29,89.59
20231207,27.59,0.51,85.55
20231208,27.9,5.22,82.82
20231209,27.38,9.64,86.5
20231210,26.84,9.61,87.77
20231211,26.68,2.64,87.58
20231212,26.47,0.63,86.07
20231213,25.7,0.0,84.14
20231214,25.35,1.75,84.87
20231215,25.85,2.11,88.7
20231216,26.26,19.8,90.61
20231217,26.06,74.66,92.69
20231218,26.02,49.59,90.15
20231219,25.1,21.51,89.83
20231220,25.26,9.13,90.37
20231221,25.21,11.21,92.57
20231222,25.66,1.96,88.31
20231223,25.08,0.09,86.87
20231224,24.65,0.32,89.39
20231225,26.24,0.7,88.79
20231226,25.53,0.1,85.83
20231227,25.28,1.93,87.64
20231228,25.78,1.85,89.99
20231229,26.21,1.22,89.47
20231230,25.88,0.21,87.75
20231231,25.28,0.08,85.08
