,T2M,Rain,Humidity
20150101,23.97,2.19,72.91
20150102,23.99,0.11,68.95
20150103,23.96,0.0,65.81
20150104,24.07,0.0,64.15
20150105,23.62,0.0,64.44
20150106,23.14,0.0,61.98
20150107,23.03,0.0,59.91
20150108,23.14,0.0,61.23
20150109,22.65,0.0,64.14
20150110,21.24,0.0,48.22
20150111,19.56,0.0,50.26
20150112,19.79,0.0,54.58
20150113,20.04,0.0,51.06
20150114,20.05,0.0,52.07
20150115,20.71,0.0,57.23
20150116,22.3,0.0,60.74
20150117,23.0,0.0,57.35
20150118,22.54,0.0,58.29
20150119,22.2,0.0,59.17
20150120,22.32,0.0,59.35
20150121,22.0,0.0,57.84
20150122,21.29,0.0,55.58
20150123,22.95,0.0,62.58
20150124,23.41,0.01,63.88
20150125,23.18,0.0,49.66
20150126,21.27,0.0,57.65
20150127,22.44,0.0,61.14
20150128,23.51,0.0,58.61
20150129,24.44,0.0,57.71
20150130,24.14,0.0,55.78
20150131,23.67,0.0,53.33
20150201,23.12,0.0,54.3
20150202,22.61,0.0,55.69
20150203,22.03,0.0,54.63
20150204,22.15,0.0,53.15
20150205,22.69,0.0,49.73
20150206,23.13,0.0,49.17
20150207,23.12,0.0,49.87
20150208,23.38,0.0,49.87
20150209,23.09,0.0,50.35
20150210,22.06,0.0,51.91
20150211,23.64,0.0,51.43
20150212,24.67,0.0,48.53
20150213,24.56,0.0,42.98
20150214,24.52,0.0,42.16
20150215,24.64,0.0,43.72
20150216,23.98,0.0,47.78
20150217,24.06,0.0,44.62
20150218,23.95,0.0,40.65
20150219,24.24,0.0,41.06
20150220,23.4,0.0,47.06
20150221,23.5,0.0,47.22
20150222,23.54,0.0,48.22
20150223,23.2,0.0,38.19
20150224,23.29,0.0,34.67
20150225,24.15,0.0,41.48
20150226,26.49,0.0,51.31
20150227,27.75,0.0,45.04
20150228,25.87,0.85,61.55
20150301,26.54,0.63,60.36
20150302,27.68,1.4,52.88
20150303,25.63,6.28,63.66
20150304,25.23,3.66,65.54
20150305,26.54,0.0,50.41
20150306,26.57,1.79,59.32
20150307,25.89,1.78,62.41
20150308,26.41,0.01,54.39
20150309,26.04,0.0,52.83
20150310,25.57,0.0,48.09
20150311,24.57,0.0,49.53
20150312,25.89,0.0,53.11
20150313,26.06,0.0,50.91
20150314,25.97,0.0,51.49
20150315,27.02,0.16,53.12
20150316,25.92,1.57,48.76
20150317,26.18,0.0,39.6
20150318,26.8,0.0,32.14
20150319,27.04,0.0,31.64
20150320,26.47,0.0,40.91
20150321,26.37,0.0,42.18
20150322,27.43,0.0,36.03
20150323,28.61,0.0,36.2
20150324,29.03,0.0,35.18
20150325,27.93,0.0,44.31
20150326,27.31,0.0,44.91
20150327,26.72,0.0,41.8
20150328,26.56,0.0,42.6
20150329,27.98,0.0,47.26
20150330,28.05,0.0,46.08
20150331,27.93,0.1,52.65
20150401,28.72,0.75,49.76
20150402,29.93,0.05,47.52
20150403,30.24,2.24,47.22
20150404,30.67,0.02,45.63
20150405,30.46,0.0,44.25
20150406,30.48,0.0,43.91
20150407,30.0,0.0,43.86
20150408,29.26,0.0,46.27
20150409,29.43,0.03,40.62
20150410,28.9,2.07,53.18
20150411,26.55,1.86,58.28
20150412,26.47,5.88,60.29
20150413,23.27,14.57,77.47
20150414,24.66,4.44,70.85
20150415,24.05,9.71,76.23
20150416,24.56,5.78,72.91
20150417,26.11,8.13,66.74
20150418,27.0,1.56,62.25
20150419,27.77,0.01,59.2
20150420,27.84,0.0,56.9
20150421,27.52,0.57,60.36
20150422,27.4,0.06,61.64
20150423,26.32,6.43,67.59
20150424,25.78,21.85,71.61
20150425,24.62,15.21,78.79
20150426,25.59,3.16,70.71
20150427,26.18,0.53,66.18
20150428,27.05,0.0,61.86
20150429,28.07,0.83,58.57
20150430,27.94,2.71,62.89
20150501,28.14,2.09,61.55
20150502,26.9,2.94,68.08
20150503,27.24,0.81,66.08
20150504,27.56,0.15,61.02
20150505,26.98,0.0,64.06
20150506,26.29,1.26,67.74
20150507,26.48,2.52,70.71
20150508,26.98,0.68,66.44
20150509,26.33,0.92,70.4
20150510,26.56,0.95,67.78
20150511,26.39,1.29,60.3
20150512,26.59,0.63,58.16
20150513,25.35,13.32,69.56
20150514,26.39,1.49,64.52
20150515,24.75,6.94,77.26
20150516,24.79,16.41,82.77
20150517,25.59,10.64,74.25
20150518,25.52,0.5,76.77
20150519,27.15,8.15,70.68
20150520,27.31,1.53,70.29
20150521,27.14,0.0,67.29
20150522,24.67,0.0,77.65
20150523,24.83,0.0,73.81
20150524,26.43,1.21,67.95
20150525,25.6,0.15,74.85
20150526,27.47,0.25,64.99
20150527,25.69,13.33,77.03
20150528,22.93,3.85,75.02
20150529,25.82,4.66,74.41
20150530,27.04,1.24,68.26
20150531,26.91,5.05,70.65
20150601,26.3,7.27,73.07
20150602,24.75,7.17,81.19
20150603,25.12,1.64,77.74
20150604,25.22,15.84,79.65
20150605,24.74,4.13,81.95
20150606,25.53,0.02,75.39
20150607,25.99,0.03,71.52
20150608,25.17,0.07,72.02
20150609,25.05,8.98,77.98
20150610,25.31,1.14,75.87
20150611,25.79,9.22,74.22
20150612,24.12,0.59,80.03
20150613,24.8,5.32,75.74
20150614,24.08,1.35,74.58
20150615,23.82,0.34,71.19
20150616,23.53,0.34,71.71
20150617,23.82,0.95,73.71
20150618,23.18,2.68,73.78
20150619,24.1,2.08,76.67
20150620,24.79,0.95,71.96
20150621,24.7,2.41,72.11
20150622,25.04,0.21,73.6
20150623,24.78,3.67,79.22
20150624,24.63,0.32,78.32
20150625,25.26,0.48,75.88
20150626,24.87,0.31,72.88
20150627,25.53,0.0,70.87
20150628,24.92,1.11,76.87
20150629,25.54,0.58,74.34
20150630,25.89,0.02,68.7
20150701,25.86,0.0,69.26
20150702,25.91,0.03,69.75
20150703,26.05,0.84,71.76
20150704,26.41,0.03,70.18
20150705,26.68,0.0,67.31
20150706,26.26,0.1,66.08
20150707,25.72,0.19,66.28
20150708,26.09,0.32,68.14
20150709,26.28,0.85,69.36
20150710,24.95,3.13,76.42
20150711,24.92,0.58,75.26
20150712,26.43,0.1,66.54
20150713,26.81,0.03,65.11
20150714,27.09,0.16,65.53
20150715,25.25,1.95,75.54
20150716,25.67,1.2,70.85
20150717,25.02,0.91,72.85
20150718,25.31,1.3,72.09
20150719,24.5,1.32,72.21
20150720,24.75,3.0,73.6
20150721,24.62,4.21,77.67
20150722,24.96,1.11,75.18
20150723,25.26,1.84,70.4
20150724,24.96,1.27,68.45
20150725,24.12,2.93,72.53
20150726,23.75,0.59,73.04
20150727,24.71,1.39,68.43
20150728,25.88,0.09,63.31
20150729,26.08,0.02,64.73
20150730,26.23,0.0,63.33
20150731,25.56,0.11,67.74
20150801,24.55,1.76,72.3
20150802,24.71,0.21,71.36
20150803,24.76,4.09,74.62
20150804,25.45,2.11,70.91
20150805,24.67,1.14,69.9
20150806,25.34,0.22,68.61
20150807,26.11,1.6,69.25
20150808,25.67,0.65,68.62
20150809,25.19,0.31,71.39
20150810,25.26,1.91,73.77
20150811,24.58,3.82,77.28
20150812,25.06,0.15,70.96
20150813,24.92,1.23,73.36
20150814,26.43,0.04,66.08
20150815,26.31,6.85,69.68
20150816,25.14,8.05,75.88
20150817,24.49,5.09,80.44
20150818,26.37,0.22,70.31
20150819,26.08,0.08,71.0
20150820,26.06,5.98,73.06
20150821,24.75,13.67,77.94
20150822,24.5,17.11,77.04
20150823,24.47,1.1,72.15
20150824,24.67,0.01,68.47
20150825,25.28,0.0,69.07
20150826,25.6,0.64,70.03
20150827,24.68,2.8,76.04
20150828,25.68,0.03,68.8
20150829,26.47,0.0,65.99
20150830,26.69,0.16,65.71
20150831,26.32,0.04,66.9
20150901,25.9,0.03,66.41
20150902,27.01,0.01,62.77
20150903,25.87,1.62,70.87
20150904,26.19,5.59,69.89
20150905,25.95,1.6,69.43
20150906,24.7,7.01,76.99
20150907,23.25,13.16,83.14
20150908,23.96,0.34,72.13
20150909,24.45,0.0,72.33
20150910,24.53,0.65,72.03
20150911,24.53,0.36,72.63
20150912,25.54,0.56,67.31
20150913,25.67,1.3,68.15
20150914,25.35,0.83,69.83
20150915,25.57,0.0,67.87
20150916,25.02,0.0,67.89
20150917,24.85,0.0,69.04
20150918,26.06,0.26,68.79
20150919,26.81,0.19,66.77
20150920,25.12,6.06,73.59
20150921,25.01,1.04,68.7
20150922,27.07,1.09,65.04
20150923,24.53,2.53,79.51
20150924,24.42,15.75,81.18
20150925,26.22,1.24,72.02
20150926,25.32,10.06,77.36
20150927,25.34,9.56,75.33
20150928,25.46,3.9,73.99
20150929,23.28,5.43,87.29
20150930,23.94,6.95,79.52
20151001,23.79,0.95,79.75
20151002,24.77,7.06,77.42
20151003,24.82,2.51,77.19
20151004,24.53,12.96,81.74
20151005,23.86,9.14,83.8
20151006,23.88,4.98,78.45
20151007,23.87,4.32,81.46
20151008,24.12,1.02,76.18
20151009,24.04,1.94,79.84
20151010,24.68,16.28,80.45
20151011,23.84,10.75,82.82
20151012,23.75,7.71,84.17
20151013,24.02,0.0,74.8
20151014,23.23,0.0,66.94
20151015,23.26,0.0,67.22
20151016,23.91,0.0,71.25
20151017,23.96,0.0,72.87
20151018,24.74,0.01,71.61
20151019,24.67,0.02,67.96
20151020,24.82,0.33,70.81
20151021,24.28,0.26,70.92
20151022,23.8,0.0,65.09
20151023,23.43,0.0,57.09
20151024,23.44,0.0,59.47
20151025,22.64,0.0,67.51
20151026,22.9,0.0,69.52
20151027,24.01,0.01,64.75
20151028,23.65,7.99,78.02
20151029,24.38,0.14,69.99
20151030,24.77,0.09,68.86
20151031,24.99,0.2,74.19
20151101,24.27,7.51,78.5
20151102,22.95,26.47,85.64
20151103,23.31,8.37,86.07
20151104,23.28,8.55,83.87
20151105,23.46,3.42,81.75
20151106,23.53,0.01,78.28
20151107,23.13,0.08,77.58
20151108,22.53,3.18,85.27
20151109,21.53,40.02,89.83
20151110,19.82,25.03,91.62
20151111,21.19,5.13,90.97
20151112,22.79,5.11,87.55
20151113,21.43,3.36,83.37
20151114,19.9,0.47,82.61
20151115,20.25,8.07,87.92
20151116,20.67,12.7,92.55
20151117,21.69,4.32,87.25
20151118,22.31,6.63,90.55
20151119,22.5,3.87,89.89
20151120,22.33,6.95,89.59
20151121,21.74,0.84,87.21
20151122,21.42,7.81,91.53
20151123,21.87,11.8,90.51
20151124,22.09,1.13,87.74
20151125,19.95,0.0,79.53
20151126,20.1,0.0,81.96
20151127,21.53,0.0,84.45
20151128,20.77,0.0,79.13
20151129,20.94,4.99,88.29
20151130,21.62,3.97,87.88
20151201,21.79,6.04,86.56
20151202,21.52,4.23,89.18
20151203,21.98,0.16,85.59
20151204,21.56,0.47,83.42
20151205,21.23,2.83,85.88
20151206,21.12,1.12,90.15
20151207,22.13,0.28,85.09
20151208,20.09,2.23,81.15
20151209,21.4,1.03,86.38
20151210,22.58,0.21,87.02
20151211,23.04,0.0,84.73
20151212,23.28,0.02,82.01
20151213,22.87,0.01,81.03
20151214,22.83,0.07,79.99
20151215,22.18,0.03,80.16
20151216,21.17,0.0,76.65
20151217,20.48,0.0,80.23
20151218,21.85,0.0,82.2
20151219,22.37,0.0,79.66
20151220,21.65,0.0,79.58
20151221,21.54,0.0,72.95
20151222,20.68,0.0,72.5
20151223,21.08,0.0,74.68
20151224,21.03,0.0,71.96
20151225,21.1,0.0,75.07
20151226,20.71,0.0,74.8
20151227,21.07,0.0,76.47
20151228,20.3,0.0,71.95
20151229,19.8,0.0,68.3
20151230,20.03,0.0,65.73
20151231,19.61,0.0,73.41
20160101,19.33,0.0,73.87
20160102,19.47,0.0,66.84
20160103,19.42,0.0,66.88
20160104,19.5,0.0,66.49
20160105,19.27,0.0,66.67
20160106,20.22,0.0,67.35
20160107,20.31,0.0,68.76
20160108,20.35,0.0,69.06
20160109,20.49,0.0,63.95
20160110,19.92,0.0,63.28
20160111,19.84,0.0,65.54
20160112,20.31,0.0,66.02
20160113,19.25,0.0,69.72
20160114,20.38,0.0,64.67
20160115,20.64,0.0,69.62
20160116,21.64,0.0,68.29
20160117,21.62,0.0,69.59
20160118,22.24,0.0,68.24
20160119,23.4,0.02,70.67
20160120,23.26,0.91,74.74
20160121,23.86,0.57,74.51
20160122,22.69,0.19,70.15
20160123,23.4,0.02,72.91
20160124,23.97,0.0,69.83
20160125,24.46,0.0,69.03
20160126,24.36,0.0,68.29
20160127,24.24,0.0,64.93
20160128,23.56,0.0,61.75
20160129,23.22,0.0,58.99
20160130,22.34,0.0,60.59
20160131,22.28,0.0,56.87
20160201,21.98,0.0,52.65
20160202,22.54,0.0,49.17
20160203,22.88,0.0,46.65
20160204,22.69,0.0,53.34
20160205,22.69,0.0,56.82
20160206,23.53,0.0,58.98
20160207,25.21,0.0,60.79
20160208,25.89,0.0,59.14
20160209,25.3,0.0,53.82
20160210,24.98,0.0,53.11
20160211,25.96,0.0,53.44
20160212,26.02,0.0,48.71
20160213,25.56,0.0,51.43
20160214,24.93,0.0,52.66
20160215,24.13,0.0,55.79
20160216,25.21,0.0,55.67
20160217,24.69,0.0,56.47
20160218,25.1,0.0,56.62
20160219,25.0,0.0,51.11
20160220,26.98,0.0,52.4
20160221,27.93,0.0,50.49
20160222,27.53,0.0,47.39
20160223,26.54,0.0,46.11
20160224,26.56,0.0,45.7
20160225,27.46,0.0,44.34
20160226,27.12,0.0,54.7
20160227,25.38,0.0,55.39
20160228,26.87,0.0,54.02
20160229,25.86,0.0,53.53
20160301,26.15,0.0,54.16
20160302,24.54,0.0,56.51
20160303,26.45,0.0,49.66
20160304,25.87,0.0,43.19
20160305,26.47,0.0,45.11
20160306,26.65,0.0,46.91
20160307,26.85,0.0,47.64
20160308,27.37,0.0,46.9
20160309,26.95,0.0,45.8
20160310,26.79,0.0,50.0
20160311,28.34,0.0,42.82
20160312,28.61,0.0,45.93
20160313,29.31,0.18,43.37
20160314,29.2,0.51,46.42
20160315,28.41,12.0,53.96
20160316,28.31,0.88,56.4
20160317,27.8,3.72,59.11
20160318,28.45,0.0,49.01
20160319,28.72,0.0,43.63
20160320,29.26,0.0,38.65
20160321,30.43,0.0,33.77
20160322,31.02,0.0,36.33
20160323,31.42,0.0,41.55
20160324,30.53,0.0,37.55
20160325,28.79,0.0,34.84
20160326,28.09,0.0,39.19
20160327,27.7,0.0,40.36
20160328,28.63,0.0,44.94
20160329,29.24,0.0,50.16
20160330,29.39,0.0,45.63
20160331,29.12,0.0,45.53
20160401,29.56,0.0,39.4
20160402,30.2,0.0,36.16
20160403,30.53,0.0,33.92
20160404,30.08,0.0,33.01
20160405,29.77,0.0,33.41
20160406,30.9,0.0,39.3
20160407,31.83,0.16,42.25
20160408,30.8,0.47,47.27
20160409,29.01,0.24,53.53
20160410,30.61,0.0,44.78
20160411,32.04,0.0,38.65
20160412,32.83,0.0,37.05
20160413,32.75,0.01,41.69
20160414,33.58,0.0,37.27
20160415,33.02,0.0,41.88
20160416,32.43,0.0,40.55
20160417,33.06,0.0,37.07
20160418,31.93,0.0,38.43
20160419,31.92,0.0,44.57
20160420,32.39,0.0,42.88
20160421,33.08,0.23,37.61
20160422,33.05,0.26,41.43
20160423,33.64,0.0,32.69
20160424,33.91,0.0,30.01
20160425,33.27,1.74,38.13
20160426,31.37,0.5,45.29
20160427,30.23,0.0,43.8
20160428,30.6,0.0,40.97
20160429,31.27,0.0,35.06
20160430,31.25,0.0,34.33
20160501,32.1,0.0,37.81
20160502,32.48,0.19,37.92
20160503,33.04,0.14,34.42
20160504,31.96,0.0,38.31
20160505,30.85,0.4,44.75
20160506,29.05,10.17,55.55
20160507,26.96,16.35,71.51
20160508,26.03,13.02,75.84
20160509,28.07,0.4,60.88
20160510,27.22,3.33,65.85
20160511,27.3,0.16,59.71
20160512,28.08,0.35,57.85
20160513,29.21,0.45,60.1
20160514,29.23,0.31,59.8
20160515,28.47,0.08,55.78
20160516,26.92,1.62,59.06
20160517,26.8,9.99,61.47
20160518,25.5,10.44,76.92
20160519,25.2,33.66,82.05
20160520,25.71,0.94,74.37
20160521,26.39,0.0,68.9
20160522,27.42,0.0,64.77
20160523,28.55,0.0,63.43
20160524,29.04,0.0,61.68
20160525,28.74,0.19,61.47
20160526,28.21,0.01,64.06
20160527,28.13,2.55,62.93
20160528,24.86,2.1,76.48
20160529,26.43,8.55,71.2
20160530,26.49,1.21,70.89
20160531,27.4,0.82,66.39
20160601,24.97,23.28,79.71
20160602,24.99,13.74,80.95
20160603,26.63,1.31,71.98
20160604,26.21,3.72,73.39
20160605,26.6,1.46,70.35
20160606,26.32,8.47,74.32
20160607,25.83,4.55,77.96
20160608,25.38,6.69,76.56
20160609,25.15,1.26,72.01
20160610,25.22,0.29,71.48
20160611,25.2,1.01,71.74
20160612,24.66,0.37,70.03
20160613,24.15,3.18,68.22
20160614,25.16,0.1,69.09
20160615,25.62,0.57,67.57
20160616,25.01,1.88,73.63
20160617,24.95,3.27,73.89
20160618,24.52,0.63,74.94
20160619,24.21,2.37,74.14
20160620,23.81,1.9,80.47
20160621,23.34,2.55,81.08
20160622,22.72,14.27,78.97
20160623,22.08,9.15,79.84
20160624,23.23,1.4,74.68
20160625,23.07,2.56,73.71
20160626,24.14,0.04,76.66
20160627,23.63,2.8,78.13
20160628,23.86,3.99,78.66
20160629,23.66,3.34,80.9
20160630,23.72,7.42,78.96
20160701,24.08,0.06,76.96
20160702,24.81,0.0,72.64
20160703,24.82,0.0,74.26
20160704,24.82,1.14,73.98
20160705,25.27,0.6,74.84
20160706,24.29,0.75,80.33
20160707,23.61,1.83,78.83
20160708,24.56,0.07,75.01
20160709,24.49,0.32,76.03
20160710,25.13,0.23,72.67
20160711,24.95,0.06,72.04
20160712,24.6,0.04,73.38
20160713,25.55,0.0,70.65
20160714,25.7,0.2,70.95
20160715,25.75,1.28,73.15
20160716,24.72,5.74,76.68
20160717,23.92,3.7,77.64
20160718,24.1,17.83,78.42
20160719,23.54,2.34,77.91
20160720,24.2,3.12,76.91
20160721,23.02,2.36,79.39
20160722,23.71,0.34,76.25
20160723,24.39,0.64,75.91
20160724,23.55,7.94,79.53
20160725,24.58,22.04,76.83
20160726,23.72,14.86,79.0
20160727,23.92,12.26,81.92
20160728,23.45,20.6,85.28
20160729,23.79,8.34,80.89
20160730,22.23,3.95,83.43
20160731,23.24,0.14,76.07
20160801,23.4,0.35,77.0
20160802,23.03,0.0,79.45
20160803,24.01,0.0,75.58
20160804,24.0,0.0,76.81
20160805,24.07,0.0,76.44
20160806,24.04,0.03,76.89
20160807,23.63,0.04,79.29
20160808,24.37,0.0,76.1
20160809,24.87,0.04,74.45
20160810,24.56,0.01,74.86
20160811,24.61,0.0,75.24
20160812,24.94,1.24,75.68
20160813,24.79,1.0,76.62
20160814,24.06,1.08,78.16
20160815,24.6,1.56,73.86
20160816,24.89,0.99,72.4
20160817,24.81,0.72,73.67
20160818,25.13,0.14,72.99
20160819,25.44,0.16,71.3
20160820,25.64,0.14,70.65
20160821,26.23,0.49,68.34
20160822,26.34,0.81,68.85
20160823,25.44,0.75,72.56
20160824,25.23,0.12,73.96
20160825,24.49,2.58,78.71
20160826,24.59,10.26,77.05
20160827,24.77,3.62,76.85
20160828,24.8,0.1,73.26
20160829,24.65,0.35,74.38
20160830,23.98,4.23,80.75
20160831,22.66,15.79,81.97
20160901,23.07,0.42,74.31
20160902,23.19,1.04,73.56
20160903,23.0,0.2,76.31
20160904,24.01,0.64,73.47
20160905,24.07,0.06,72.17
20160906,24.14,0.32,71.54
20160907,24.52,0.05,67.91
20160908,24.82,0.0,67.75
20160909,25.35,1.85,67.32
20160910,24.88,3.7,71.09
20160911,23.49,0.47,72.95
20160912,24.33,0.06,69.62
20160913,24.46,0.27,70.13
20160914,25.4,1.76,71.49
20160915,24.47,1.37,73.27
20160916,24.92,1.08,71.78
20160917,24.13,0.7,71.76
20160918,24.64,0.0,69.94
20160919,25.17,0.0,67.52
20160920,24.8,0.03,67.28
20160921,24.24,1.26,72.58
20160922,24.71,0.07,67.44
20160923,25.11,0.54,69.76
20160924,25.1,0.04,69.22
20160925,25.57,0.0,67.91
20160926,26.08,0.16,68.05
20160927,23.36,3.69,85.99
20160928,24.64,3.45,81.05
20160929,25.04,5.13,77.66
20160930,25.76,0.39,68.17
20161001,24.72,0.0,68.35
20161002,24.2,0.03,70.09
20161003,25.77,1.16,69.83
20161004,26.06,1.6,68.97
20161005,26.23,0.01,63.04
20161006,25.0,0.0,62.88
20161007,23.71,0.0,65.16
20161008,25.28,0.0,66.75
20161009,25.04,0.61,66.7
20161010,24.97,0.48,68.14
20161011,25.3,8.58,72.62
20161012,24.09,19.54,81.78
20161013,24.03,4.37,80.88
20161014,24.77,0.93,72.63
20161015,24.77,0.0,63.65
20161016,24.71,0.0,61.06
20161017,25.17,0.0,60.4
20161018,25.4,0.0,53.46
20161019,25.26,0.0,57.59
20161020,25.35,0.0,58.75
20161021,25.18,0.0,52.75
20161022,25.59,0.0,55.63
20161023,24.85,0.0,52.1
20161024,22.48,0.0,62.4
20161025,24.42,0.0,57.95
20161026,24.63,0.0,56.04
20161027,24.42,0.0,55.28
20161028,25.39,0.0,50.12
20161029,26.12,0.0,51.24
20161030,25.87,0.56,63.46
20161031,25.72,0.38,64.87
20161101,25.74,1.31,62.66
20161102,24.71,0.62,69.9
20161103,24.94,0.08,68.01
20161104,26.64,0.0,57.43
20161105,25.87,0.0,46.96
20161106,25.88,0.0,45.04
20161107,25.06,0.0,49.08
20161108,24.55,0.02,55.18
20161109,23.28,0.03,49.83
20161110,23.12,0.0,44.07
20161111,23.48,0.0,54.45
20161112,24.64,0.0,54.28
20161113,25.7,0.22,62.37
20161114,26.53,0.71,62.46
20161115,25.75,0.57,57.74
20161116,25.62,0.01,58.44
20161117,25.44,0.01,60.45
20161118,23.63,0.0,56.42
20161119,23.88,0.0,53.53
20161120,23.16,0.0,50.87
20161121,23.79,0.0,53.19
20161122,23.82,0.0,43.29
20161123,23.29,0.0,46.14
20161124,22.55,0.0,46.85
20161125,22.59,0.0,47.09
20161126,23.23,0.0,43.61
20161127,23.87,0.0,36.22
20161128,24.25,0.0,28.19
20161129,24.06,0.0,34.32
20161130,22.56,0.0,47.74
20161201,22.06,2.13,57.02
20161202,22.87,5.0,73.81
20161203,23.05,2.4,79.63
20161204,23.98,0.19,70.03
20161205,24.04,0.34,69.43
20161206,23.27,0.01,61.25
20161207,22.68,0.0,61.1
20161208,24.56,0.0,63.29
20161209,24.22,0.0,47.77
20161210,22.4,0.0,24.95
20161211,21.34,0.0,24.12
20161212,22.14,30.05,49.6
20161213,20.72,9.98,83.32
20161214,22.68,2.11,79.01
20161215,22.26,0.23,69.48
20161216,22.09,1.12,75.63
20161217,22.62,0.0,68.82
20161218,22.26,0.0,66.36
20161219,21.54,0.0,59.09
20161220,21.92,0.0,59.81
20161221,22.39,0.0,63.77
20161222,21.74,0.0,55.84
20161223,21.67,0.0,37.72
20161224,20.5,0.0,49.55
20161225,20.78,0.0,57.44
20161226,21.1,0.0,49.99
20161227,21.34,0.0,56.77
20161228,21.5,0.0,58.59
20161229,20.86,0.0,58.94
20161230,20.45,0.0,60.99
20161231,20.56,0.0,59.12
20170101,20.58,0.0,61.82
20170102,21.09,0.0,57.7
20170103,21.04,0.0,49.1
20170104,21.51,0.0,51.58
20170105,21.47,0.0,54.93
20170106,21.46,0.0,53.85
20170107,21.37,0.0,56.36
20170108,21.35,0.0,57.83
20170109,21.45,0.0,53.45
20170110,21.55,0.0,48.17
20170111,21.74,0.0,53.73
20170112,22.44,0.0,57.84
20170113,22.91,0.0,59.24
20170114,22.34,0.0,60.31
20170115,21.96,0.0,55.62
20170116,22.19,0.0,54.92
20170117,21.17,0.0,50.64
20170118,20.87,0.0,53.38
20170119,20.83,0.0,60.06
20170120,21.85,0.0,58.51
20170121,22.96,0.3,68.69
20170122,23.62,0.0,54.49
20170123,22.09,0.0,47.03
20170124,22.9,0.0,52.82
20170125,22.64,0.0,56.61
20170126,22.92,3.15,66.48
20170127,23.22,2.6,76.43
20170128,24.02,1.22,71.95
20170129,24.35,0.08,58.46
20170130,23.83,0.02,55.62
20170131,23.8,0.0,51.09
20170201,22.37,0.0,47.39
20170202,21.73,0.0,51.94
20170203,22.07,0.0,52.73
20170204,22.57,0.0,51.42
20170205,22.26,0.0,50.47
20170206,22.81,0.0,47.03
20170207,23.26,0.0,36.82
20170208,23.46,0.0,39.01
20170209,23.3,0.0,45.19
20170210,23.35,0.0,46.61
20170211,23.11,0.0,47.26
20170212,22.67,0.0,52.31
20170213,22.47,0.0,54.52
20170214,23.46,0.0,61.15
20170215,23.96,0.0,50.36
20170216,22.34,0.0,48.06
20170217,21.91,0.0,47.74
20170218,22.8,0.0,46.11
20170219,24.55,0.0,39.13
20170220,26.24,0.0,28.16
20170221,26.9,0.0,33.42
20170222,26.78,0.0,31.48
20170223,26.25,0.0,41.68
20170224,26.3,0.0,38.52
20170225,26.57,0.0,35.0
20170226,26.23,0.0,39.22
20170227,24.51,0.0,41.76
20170228,24.83,0.0,33.57
20170301,24.43,0.0,32.67
20170302,24.68,0.0,28.69
20170303,25.69,0.0,42.77
20170304,26.78,0.42,59.87
20170305,27.06,0.27,58.73
20170306,27.48,0.9,57.29
20170307,26.09,6.69,64.0
20170308,26.45,6.07,66.2
20170309,27.0,0.14,62.72
20170310,26.67,4.62,62.44
20170311,27.05,0.55,58.21
20170312,27.51,0.0,49.45
20170313,27.84,4.14,54.99
20170314,25.65,6.19,72.24
20170315,25.34,0.72,66.64
20170316,25.51,0.41,62.86
20170317,26.75,0.69,59.38
20170318,28.51,0.13,51.48
20170319,28.82,0.01,46.84
20170320,28.38,0.98,50.87
20170321,27.8,1.66,53.0
20170322,27.76,0.0,47.68
20170323,27.23,0.0,43.76
20170324,27.26,0.0,36.83
20170325,27.35,0.0,34.12
20170326,27.91,0.0,34.42
20170327,27.0,0.0,36.3
20170328,27.85,0.0,36.11
20170329,28.51,0.0,36.52
20170330,28.44,0.0,30.19
20170331,28.6,0.0,44.35
20170401,29.06,0.0,38.28
20170402,30.06,0.0,30.12
20170403,29.96,0.0,36.27
20170404,30.27,0.11,43.72
20170405,30.8,1.22,40.89
20170406,31.35,1.71,40.15
20170407,31.17,1.24,41.08
20170408,31.25,0.0,36.66
20170409,30.7,0.0,36.09
20170410,31.26,0.13,37.49
20170411,31.9,0.57,33.43
20170412,30.99,0.03,36.55
20170413,30.37,0.04,38.34
20170414,29.85,0.0,36.59
20170415,30.59,0.0,28.48
20170416,31.61,0.27,32.16
20170417,31.22,4.31,44.86
20170418,30.43,0.06,46.95
20170419,31.04,0.15,47.49
20170420,30.69,1.96,49.77
20170421,27.88,8.94,65.35
20170422,28.44,3.82,61.36
20170423,29.91,0.01,53.38
20170424,30.67,0.48,47.89
20170425,30.26,1.26,49.62
20170426,28.56,0.21,57.51
20170427,29.7,0.0,47.62
20170428,30.65,0.09,42.61
20170429,31.4,2.2,39.61
20170430,30.51,1.07,43.84
20170501,28.94,2.63,52.06
20170502,27.71,5.83,57.64
20170503,28.6,0.16,54.33
20170504,29.79,0.01,48.53
20170505,30.93,0.13,44.97
20170506,30.8,0.07,49.55
20170507,29.42,9.74,54.74
20170508,26.78,13.42,62.77
20170509,27.7,1.63,62.77
20170510,27.72,1.77,66.99
20170511,26.33,1.22,71.16
20170512,27.45,0.34,64.39
20170513,28.18,0.2,63.7
20170514,29.26,3.65,62.34
20170515,27.81,1.08,68.52
20170516,30.45,0.81,54.51
20170517,29.36,3.17,61.55
20170518,27.01,18.07,71.02
20170519,25.13,2.95,78.25
20170520,26.25,5.24,73.46
20170521,24.84,12.92,79.27
20170522,25.94,12.47,76.64
20170523,27.94,0.16,65.45
20170524,27.62,2.87,69.03
20170525,26.11,5.96,75.75
20170526,26.66,13.22,74.22
20170527,24.61,26.57,86.53
20170528,25.55,2.0,79.75
20170529,26.17,0.01,74.02
20170530,26.49,0.03,71.27
20170531,26.04,0.0,73.01
20170601,26.23,0.0,69.42
20170602,25.88,2.54,70.74
20170603,25.0,0.03,73.61
20170604,26.24,0.0,70.4
20170605,26.86,0.16,68.09
20170606,25.26,11.27,75.02
20170607,24.54,1.64,68.39
20170608,24.49,0.13,67.75
20170609,24.29,1.74,75.32
20170610,24.55,0.18,73.7
20170611,24.88,0.24,71.49
20170612,24.46,1.38,77.92
20170613,26.05,0.1,74.05
20170614,26.26,0.01,73.45
20170615,26.34,0.05,70.53
20170616,25.43,3.63,73.33
20170617,24.27,0.2,69.6
20170618,26.15,0.06,66.54
20170619,24.41,1.91,70.65
20170620,25.5,0.79,69.2
20170621,25.28,0.37,70.55
20170622,25.43,0.18,71.19
20170623,25.73,1.23,71.4
20170624,24.68,2.95,67.37
20170625,24.35,1.24,74.88
20170626,24.9,0.34,73.06
20170627,24.5,5.16,70.14
20170628,24.24,0.41,70.61
20170629,24.15,1.99,70.31
20170630,24.5,0.09,73.28
20170701,25.93,0.01,68.87
20170702,24.4,0.92,75.88
20170703,25.01,0.72,69.7
20170704,24.79,1.05,67.46
20170705,24.14,1.68,74.99
20170706,25.43,1.78,71.62
20170707,25.37,0.53,69.8
20170708,25.04,0.02,67.55
20170709,25.18,0.11,68.26
20170710,24.86,0.01,72.4
20170711,24.17,1.71,77.24
20170712,25.17,3.23,67.24
20170713,25.26,0.15,65.92
20170714,24.7,0.0,63.82
20170715,24.83,0.25,68.63
20170716,25.42,0.0,67.93
20170717,25.15,0.0,68.08
20170718,24.86,0.47,73.86
20170719,24.82,2.12,73.73
20170720,24.7,0.16,68.67
20170721,25.17,0.04,70.43
20170722,26.27,0.0,66.48
20170723,26.57,0.0,65.96
20170724,25.81,0.0,67.91
20170725,26.94,0.03,63.85
20170726,27.15,0.0,62.65
20170727,26.78,1.61,64.48
20170728,25.93,2.94,68.91
20170729,25.02,5.05,73.74
20170730,25.13,13.03,75.3
20170731,25.01,23.79,78.43
20170801,26.11,5.48,71.55
20170802,25.51,1.29,72.44
20170803,25.3,0.01,71.55
20170804,25.34,0.09,73.41
20170805,25.6,0.74,72.7
20170806,26.09,2.13,71.33
20170807,25.8,0.43,71.84
20170808,25.55,2.57,73.33
20170809,25.42,8.04,73.29
20170810,24.34,5.26,75.38
20170811,23.35,8.13,84.86
20170812,23.81,4.54,80.72
20170813,23.56,1.41,80.87
20170814,24.0,24.52,78.19
20170815,23.94,12.63,80.4
20170816,24.2,7.78,81.1
20170817,23.68,8.78,83.42
20170818,23.58,3.01,82.26
20170819,23.87,5.37,77.06
20170820,23.32,10.56,79.67
20170821,23.59,6.83,79.2
20170822,23.43,1.98,82.46
20170823,24.23,15.74,80.94
20170824,23.2,7.78,83.74
20170825,23.93,2.99,80.67
20170826,23.8,6.03,83.5
20170827,23.96,1.74,78.17
20170828,23.08,1.7,85.41
20170829,23.86,0.33,79.76
20170830,24.52,0.98,79.58
20170831,24.41,9.36,80.44
20170901,24.75,14.51,81.97
20170902,23.54,20.14,89.22
20170903,24.4,12.04,83.07
20170904,24.45,4.42,82.86
20170905,24.58,18.47,82.44
20170906,23.06,25.62,90.38
20170907,23.83,2.98,87.91
20170908,24.56,11.07,81.64
20170909,24.51,11.24,82.43
20170910,24.03,5.04,85.55
20170911,24.52,0.87,84.22
20170912,24.32,5.19,85.15
20170913,24.29,2.24,84.52
20170914,24.08,3.19,85.26
20170915,23.32,0.63,88.11
20170916,23.34,7.5,86.32
20170917,22.24,10.7,84.47
20170918,22.69,1.6,81.9
20170919,23.14,0.28,82.89
20170920,22.74,0.03,82.39
20170921,22.98,0.13,81.25
20170922,23.18,0.02,81.23
20170923,24.6,0.0,78.72
20170924,23.39,20.84,86.3
20170925,22.12,18.01,91.39
20170926,22.65,22.84,87.49
20170927,21.93,28.5,89.85
20170928,22.51,4.13,89.06
20170929,22.4,3.5,87.2
20170930,23.9,4.62,85.34
20171001,23.13,5.77,89.2
20171002,23.89,11.83,86.03
20171003,23.0,1.94,90.3
20171004,23.15,6.71,90.0
20171005,23.33,19.9,87.43
20171006,23.29,18.03,86.56
20171007,23.25,7.21,86.51
20171008,24.08,5.62,85.64
20171009,24.11,14.66,85.36
20171010,23.3,20.43,89.4
20171011,23.35,19.69,87.57
20171012,23.68,20.96,84.54
20171013,23.0,6.29,87.25
20171014,22.36,18.24,90.51
20171015,22.24,0.17,87.33
20171016,22.13,1.03,90.62
20171017,22.22,0.04,87.39
20171018,22.99,0.0,84.02
20171019,23.81,0.0,76.41
20171020,23.41,0.0,85.41
20171021,23.53,0.6,83.18
20171022,23.4,0.08,83.82
20171023,21.63,0.0,76.33
20171024,22.05,0.0,71.9
20171025,22.53,1.96,88.08
20171026,22.89,0.6,87.36
20171027,22.45,2.26,86.2
20171028,21.87,1.25,85.33
20171029,22.0,0.06,83.83
20171030,21.56,1.43,89.03
20171031,21.72,0.21,88.14
20171101,22.08,0.44,87.46
20171102,21.5,1.92,86.36
20171103,20.78,0.5,88.02
20171104,20.9,2.37,89.17
20171105,21.81,4.46,88.36
20171106,21.58,5.98,89.12
20171107,21.68,3.87,88.24
20171108,21.85,1.7,87.56
20171109,20.97,0.11,82.44
20171110,20.8,0.0,83.93
20171111,20.95,0.0,83.6
20171112,20.85,0.0,81.72
20171113,21.8,0.14,84.93
20171114,22.44,0.62,85.06
20171115,22.8,1.03,85.07
20171116,22.64,1.77,86.07
20171117,23.43,0.5,85.03
20171118,23.02,0.02,85.87
20171119,22.94,0.12,86.42
20171120,22.45,0.45,85.4
20171121,22.39,1.54,85.68
20171122,22.06,0.35,85.7
20171123,21.44,0.0,81.57
20171124,21.94,0.0,84.84
20171125,21.37,0.0,85.0
20171126,20.88,0.63,86.9
20171127,21.95,0.28,86.78
20171128,21.55,0.01,84.1
20171129,21.14,0.44,81.79
20171130,21.16,9.84,91.2
20171201,22.02,10.79,92.8
20171202,19.72,9.43,91.74
20171203,20.51,0.1,88.74
20171204,21.5,0.03,86.33
20171205,21.67,0.04,84.96
20171206,22.1,0.0,84.26
20171207,21.67,0.0,83.36
20171208,20.36,0.0,69.03
20171209,20.42,0.0,64.4
20171210,20.05,0.0,72.11
20171211,20.8,0.0,74.78
20171212,21.58,0.0,81.18
20171213,21.03,0.14,87.97
20171214,21.45,0.02,80.78
20171215,20.68,0.0,82.05
20171216,20.38,0.0,82.65
20171217,19.18,0.0,81.95
20171218,18.59,0.0,81.99
20171219,19.55,0.0,83.11
20171220,19.45,0.0,79.3
20171221,18.75,0.01,80.22
20171222,20.07,0.0,79.32
20171223,19.26,0.0,78.24
20171224,18.85,0.0,77.42
20171225,19.53,0.0,77.38
20171226,19.17,0.0,75.03
20171227,19.17,0.0,75.78
20171228,18.04,0.0,73.98
20171229,18.5,0.0,77.49
20171230,19.07,0.0,77.58
20171231,19.87,0.0,71.78
20180101,21.63,0.0,71.45
20180102,21.68,0.0,71.63
20180103,21.75,0.0,72.7
20180104,21.12,0.0,73.82
20180105,19.54,0.0,70.45
20180106,18.89,0.0,67.52
20180107,18.9,0.0,65.62
20180108,18.58,0.0,67.42
20180109,20.25,0.05,73.58
20180110,22.03,0.08,77.19
20180111,22.93,0.01,77.11
20180112,23.2,0.0,70.81
20180113,21.49,0.0,69.42
20180114,21.23,0.0,66.43
20180115,22.05,0.0,66.98
20180116,22.34,0.0,70.0
20180117,21.52,0.0,67.85
20180118,20.25,0.0,63.99
20180119,19.7,0.0,65.54
20180120,19.97,0.0,64.24
20180121,20.16,0.0,63.31
20180122,20.53,0.0,64.18
20180123,21.66,0.0,68.26
20180124,22.68,0.0,67.07
20180125,22.24,0.0,58.58
20180126,21.16,0.0,62.41
20180127,21.33,0.0,65.36
20180128,21.41,0.0,63.78
20180129,21.3,0.0,60.93
20180130,21.27,0.0,60.11
20180131,20.9,0.0,56.38
20180201,20.83,0.0,48.4
20180202,21.06,0.0,47.52
20180203,20.27,0.0,53.42
20180204,19.77,0.0,54.23
20180205,22.1,0.0,54.17
20180206,23.82,0.09,62.51
20180207,22.51,4.96,79.07
20180208,23.01,0.52,66.42
20180209,23.84,0.88,67.1
20180210,22.53,0.03,68.02
20180211,23.86,0.0,62.48
20180212,23.29,0.0,62.58
20180213,22.67,0.0,62.64
20180214,22.07,0.0,63.39
20180215,20.95,0.0,65.68
20180216,22.48,0.0,55.73
20180217,23.33,0.0,53.96
20180218,23.72,0.0,49.42
20180219,23.29,0.0,53.31
20180220,23.86,0.0,54.61
20180221,23.55,0.0,50.19
20180222,24.01,0.0,45.82
20180223,23.44,0.0,46.26
20180224,23.1,0.0,49.0
20180225,24.11,0.0,49.95
20180226,24.52,0.0,44.38
20180227,24.7,0.0,41.8
20180228,24.8,0.0,35.17
20180301,24.65,0.0,39.36
20180302,25.07,0.0,34.17
20180303,25.44,0.0,29.72
20180304,25.55,0.0,29.21
20180305,25.19,0.0,32.16
20180306,25.41,0.0,34.5
20180307,25.69,0.0,38.61
20180308,26.0,0.0,37.28
20180309,26.21,0.0,37.83
20180310,26.47,0.0,39.05
20180311,26.25,0.0,42.17
20180312,26.09,0.0,47.53
20180313,25.92,0.24,60.26
20180314,26.2,0.16,57.87
20180315,26.81,2.24,55.5
20180316,26.27,1.29,65.46
20180317,25.3,15.13,68.25
20180318,25.66,0.52,64.6
20180319,25.71,0.02,55.4
20180320,26.47,0.0,47.44
20180321,27.45,0.0,45.02
20180322,28.86,0.06,45.81
20180323,29.32,0.15,39.58
20180324,29.25,0.05,42.82
20180325,28.82,0.0,41.02
20180326,28.16,0.0,37.77
20180327,28.44,0.0,36.06
20180328,29.85,0.0,44.61
20180329,28.9,0.0,46.08
20180330,29.8,0.86,45.38
20180331,27.91,0.33,54.15
20180401,29.29,0.06,48.22
20180402,29.33,0.45,46.92
20180403,29.84,1.24,44.66
20180404,29.85,0.0,40.89
20180405,28.27,0.0,46.69
20180406,28.03,0.0,43.47
20180407,28.66,0.0,43.96
20180408,28.3,0.01,49.81
20180409,28.12,0.05,49.82
20180410,28.42,0.04,48.5
20180411,28.95,0.22,49.31
20180412,29.65,0.0,49.14
20180413,29.49,0.02,49.02
20180414,30.26,0.48,47.93
20180415,29.81,0.19,52.29
20180416,30.33,1.21,49.35
20180417,30.77,0.02,45.48
20180418,31.44,0.0,38.6
20180419,30.69,0.08,44.1
20180420,29.79,2.5,46.06
20180421,29.41,2.7,52.44
20180422,30.42,3.02,48.81
20180423,30.96,0.22,46.05
20180424,30.75,0.43,42.02
20180425,30.24,1.91,47.87
20180426,30.01,1.0,49.47
20180427,29.59,0.26,49.97
20180428,30.05,0.0,48.73
20180429,31.24,0.0,42.91
20180430,29.92,6.02,51.85
20180501,28.5,9.69,65.49
20180502,28.0,0.88,66.45
20180503,28.37,10.18,64.83
20180504,27.31,8.92,67.29
20180505,27.47,0.26,62.39
20180506,28.27,0.53,61.17
20180507,28.59,0.3,61.91
20180508,26.11,5.88,72.1
20180509,25.38,3.92,74.12
20180510,26.23,8.76,70.23
20180511,26.26,14.41,74.58
20180512,26.05,1.16,74.33
20180513,26.8,6.8,70.09
20180514,24.95,1.46,75.87
20180515,25.84,2.35,63.92
20180516,26.7,3.32,61.79
20180517,26.85,5.13,68.05
20180518,26.52,3.57,71.79
20180519,27.43,7.57,67.75
20180520,27.25,2.69,70.29
20180521,27.26,6.33,68.53
20180522,27.24,1.88,68.43
20180523,28.39,3.89,62.06
20180524,27.55,2.02,69.28
20180525,26.23,19.4,76.17
20180526,26.38,1.2,73.84
20180527,26.3,2.19,73.89
20180528,26.07,0.13,75.39
20180529,26.52,0.22,71.47
20180530,26.36,5.89,77.52
20180531,26.56,0.63,77.31
20180601,26.1,9.37,78.18
20180602,26.56,3.95,71.5
20180603,24.1,5.51,85.78
20180604,24.66,1.46,81.9
20180605,25.68,1.32,72.84
20180606,25.42,3.28,71.3
20180607,24.61,3.23,76.92
20180608,24.16,0.45,76.75
20180609,24.25,1.08,74.62
20180610,24.89,0.53,77.79
20180611,25.44,0.44,78.07
20180612,25.42,0.07,77.08
20180613,25.6,0.32,75.5
20180614,25.3,0.87,66.77
20180615,25.23,2.17,67.7
20180616,24.64,2.51,63.54
20180617,24.4,0.91,62.73
20180618,24.24,1.12,68.86
20180619,24.86,0.03,75.11
20180620,24.66,0.0,76.86
20180621,24.94,0.83,73.36
20180622,24.25,0.08,71.87
20180623,24.44,3.4,73.05
20180624,24.58,0.19,68.31
20180625,24.3,0.07,66.01
20180626,24.44,1.49,70.93
20180627,24.71,5.37,75.02
20180628,24.28,0.18,74.88
20180629,24.55,0.2,71.83
20180630,24.77,0.6,66.34
20180701,25.15,9.83,67.79
20180702,24.35,24.99,74.58
20180703,23.65,4.92,77.67
20180704,24.89,0.02,73.06
20180705,24.96,0.0,70.46
20180706,24.45,0.24,74.74
20180707,23.94,0.06,76.59
20180708,24.66,0.22,74.71
20180709,24.57,2.18,75.55
20180710,23.72,4.85,77.41
20180711,23.71,4.57,79.39
20180712,24.61,0.15,73.13
20180713,23.82,1.14,77.35
20180714,24.31,0.24,77.24
20180715,24.95,0.06,72.89
20180716,24.0,0.49,74.06
20180717,24.75,0.12,70.63
20180718,24.59,0.02,73.32
20180719,24.83,1.12,75.81
20180720,24.63,0.45,75.15
20180721,24.43,0.02,75.25
20180722,25.38,0.01,70.27
20180723,25.18,3.44,72.69
20180724,25.04,1.82,73.42
20180725,25.18,0.68,73.44
20180726,25.13,0.47,73.05
20180727,25.31,0.1,71.16
20180728,25.14,1.48,72.64
20180729,25.01,0.26,74.42
20180730,24.89,0.72,75.42
20180731,24.06,1.63,78.08
20180801,24.4,2.85,75.12
20180802,25.18,0.33,71.13
20180803,24.09,0.37,71.91
20180804,24.18,0.03,71.86
20180805,24.86,0.01,70.53
20180806,24.92,2.87,70.0
20180807,23.97,0.6,72.54
20180808,24.22,1.6,74.37
20180809,24.54,0.35,71.64
20180810,24.08,1.28,73.99
20180811,24.18,1.21,73.86
20180812,22.84,1.38,77.02
20180813,24.13,0.86,68.83
20180814,23.81,4.63,78.11
20180815,23.78,6.57,83.37
20180816,24.33,0.35,75.39
20180817,24.97,0.09,71.89
20180818,25.08,0.07,70.28
20180819,25.3,0.0,68.6
20180820,24.6,0.04,69.94
20180821,25.29,0.09,68.17
20180822,24.94,0.02,67.69
20180823,25.31,0.57,69.8
20180824,24.84,5.26,72.76
20180825,24.89,1.23,72.38
20180826,25.15,1.47,69.54
20180827,24.74,1.1,71.08
20180828,24.15,1.95,73.45
20180829,25.08,0.49,70.31
20180830,25.55,5.54,70.39
20180831,25.29,2.18,71.49
20180901,24.88,0.11,71.36
20180902,25.97,0.0,65.53
20180903,24.46,0.0,66.85
20180904,25.86,0.12,64.05
20180905,25.02,0.05,66.63
20180906,25.71,0.0,63.45
20180907,25.46,0.0,64.0
20180908,25.95,0.0,62.93
20180909,26.55,5.84,64.92
20180910,25.44,3.28,70.05
20180911,26.72,0.8,68.64
20180912,25.22,8.93,72.11
20180913,26.62,5.81,64.24
20180914,26.48,8.47,66.05
20180915,24.74,14.25,76.45
20180916,24.42,14.49,79.69
20180917,24.23,3.97,77.33
20180918,25.04,1.23,71.54
20180919,24.57,0.02,67.62
20180920,24.71,3.88,70.91
20180921,24.15,2.24,75.14
20180922,25.37,2.45,66.92
20180923,25.51,8.38,75.38
20180924,24.4,6.65,79.41
20180925,25.37,1.33,74.08
20180926,25.23,5.93,77.43
20180927,25.65,5.37,73.93
20180928,25.21,1.52,77.62
20180929,25.67,0.6,74.38
20180930,26.39,1.12,71.83
20181001,26.06,0.85,71.7
20181002,25.76,0.1,71.68
20181003,24.9,7.08,76.02
20181004,23.71,9.54,80.22
20181005,23.22,10.73,83.81
20181006,23.39,8.04,84.71
20181007,24.53,0.36,77.92
20181008,24.31,7.54,75.97
20181009,23.82,6.3,77.52
20181010,24.02,0.01,66.38
20181011,24.42,0.0,54.24
20181012,25.33,0.0,65.34
20181013,25.86,2.29,61.21
20181014,25.01,10.62,77.09
20181015,24.46,2.22,80.88
20181016,23.68,4.63,83.3
20181017,22.75,10.76,85.02
20181018,22.84,1.85,80.76
20181019,23.59,0.27,79.57
20181020,23.68,0.14,67.32
20181021,24.12,0.1,72.62
20181022,23.59,0.02,64.34
20181023,23.39,0.0,62.7
20181024,23.16,0.0,64.45
20181025,23.29,0.0,66.42
20181026,23.64,0.0,68.75
20181027,23.46,0.0,64.46
20181028,23.1,0.0,61.03
20181029,23.15,0.0,49.64
20181030,23.66,0.0,52.33
20181031,25.06,0.16,66.61
20181101,24.98,0.32,73.22
20181102,23.39,3.01,80.8
20181103,23.72,1.87,79.53
20181104,24.65,0.42,72.87
20181105,24.88,0.06,67.43
20181106,23.72,0.0,69.84
20181107,23.64,0.0,59.97
20181108,23.32,0.0,62.68
20181109,24.16,0.0,64.46
20181110,23.85,0.01,63.25
20181111,23.54,0.0,61.84
20181112,23.34,0.0,54.12
20181113,23.05,0.0,43.39
20181114,23.08,0.0,38.87
20181115,23.21,2.03,61.35
20181116,23.01,2.51,81.84
20181117,24.57,0.08,73.11
20181118,24.86,0.81,74.17
20181119,25.61,0.09,67.58
20181120,24.25,0.11,69.48
20181121,22.09,2.34,77.99
20181122,22.06,6.47,82.71
20181123,23.06,10.96,83.25
20181124,24.15,0.32,71.01
20181125,24.38,0.0,68.74
20181126,23.15,0.0,66.0
20181127,21.13,0.0,65.69
20181128,21.59,0.0,69.45
20181129,22.97,0.9,75.23
20181130,23.77,0.08,68.89
20181201,23.04,0.01,65.5
20181202,22.47,0.0,66.84
20181203,23.34,0.0,67.73
20181204,22.32,2.31,82.34
20181205,24.35,0.5,74.39
20181206,24.77,0.07,68.31
20181207,24.34,0.01,67.32
20181208,23.99,0.0,68.12
20181209,23.82,0.0,64.53
20181210,24.13,0.0,64.56
20181211,24.11,0.0,60.89
20181212,24.19,0.0,62.7
20181213,24.06,0.0,61.86
20181214,23.84,0.0,58.2
20181215,23.13,0.0,60.87
20181216,21.13,0.0,60.84
20181217,22.41,0.0,49.96
20181218,22.35,0.0,42.5
20181219,20.21,0.0,65.15
20181220,22.16,0.0,60.94
20181221,24.11,0.0,61.02
20181222,24.07,0.02,63.16
20181223,24.79,0.09,65.28
20181224,25.23,0.03,60.88
20181225,24.88,0.0,56.7
20181226,24.64,0.0,56.25
20181227,24.9,0.0,55.19
20181228,24.05,0.68,60.58
20181229,24.02,0.24,59.92
20181230,22.17,0.0,57.79
20181231,22.04,0.0,54.95
20190101,20.21,0.0,47.7
20190102,19.85,0.0,52.02
20190103,20.41,0.0,52.05
20190104,20.07,0.0,52.83
20190105,20.38,0.0,54.41
20190106,21.52,0.0,55.47
20190107,21.72,0.0,54.7
20190108,22.19,0.0,49.37
20190109,21.78,0.0,48.64
20190110,21.88,0.0,52.53
20190111,22.15,0.0,53.23
20190112,22.25,0.0,54.55
20190113,21.98,0.0,49.09
20190114,22.22,0.0,50.74
20190115,21.72,0.0,44.59
20190116,21.7,0.0,50.39
20190117,22.48,0.0,55.17
20190118,22.08,0.0,54.16
20190119,21.81,0.0,49.5
20190120,21.57,0.0,47.18
20190121,21.48,0.0,48.35
20190122,21.97,0.0,49.89
20190123,23.18,0.0,55.67
20190124,24.05,0.0,54.39
20190125,24.72,0.0,58.01
20190126,25.47,0.0,59.73
20190127,24.97,0.22,61.25
20190128,24.72,2.61,60.22
20190129,23.14,0.97,59.73
20190130,23.32,0.0,55.82
20190131,22.69,0.0,52.64
20190201,22.94,0.0,55.18
20190202,24.19,0.0,52.93
20190203,24.89,0.0,53.63
20190204,25.29,0.0,52.86
20190205,24.31,0.0,53.81
20190206,25.18,0.0,47.94
20190207,25.77,0.0,51.27
20190208,26.75,0.0,49.92
20190209,26.93,3.38,55.09
20190210,24.39,8.93,71.48
20190211,24.65,0.04,65.0
20190212,24.05,0.0,58.78
20190213,24.02,0.0,56.07
20190214,24.9,0.0,57.51
20190215,26.22,0.0,55.61
20190216,27.58,0.0,51.29
20190217,27.6,0.0,45.29
20190218,27.81,0.0,41.08
20190219,28.23,0.13,53.15
20190220,27.0,0.14,51.43
20190221,25.48,0.0,49.48
20190222,24.67,0.0,41.2
20190223,25.42,0.0,32.01
20190224,25.87,0.0,33.96
20190225,25.8,0.0,34.46
20190226,27.16,0.0,36.69
20190227,28.89,0.0,43.85
20190228,29.07,0.0,39.29
20190301,29.08,0.15,48.64
20190302,28.47,0.73,50.99
20190303,28.07,0.0,49.39
20190304,29.23,0.0,44.3
20190305,30.95,0.0,35.79
20190306,31.85,0.01,30.39
20190307,32.07,0.0,27.04
20190308,31.31,0.0,34.91
20190309,30.37,0.08,43.6
20190310,30.08,0.01,44.02
20190311,29.21,0.0,39.1
20190312,27.93,0.0,35.95
20190313,27.61,0.0,30.24
20190314,27.47,0.0,30.78
20190315,27.67,0.0,29.94
20190316,27.14,0.0,35.75
20190317,26.93,0.0,37.39
20190318,28.05,0.0,47.31
20190319,28.99,0.0,46.26
20190320,29.07,0.0,42.93
20190321,28.33,0.0,37.8
20190322,28.92,0.0,39.27
20190323,29.93,0.0,41.73
20190324,30.67,0.0,32.09
20190325,29.62,0.0,35.1
20190326,29.16,0.0,36.24
20190327,29.18,0.0,30.93
20190328,29.57,0.0,31.38
20190329,30.51,0.0,25.9
20190330,30.21,0.0,28.35
20190331,30.63,0.0,29.59
20190401,30.91,0.0,27.99
20190402,30.73,0.0,34.11
20190403,30.41,0.0,35.74
20190404,29.06,0.0,36.84
20190405,29.91,0.0,39.53
20190406,29.97,0.0,33.48
20190407,30.1,0.0,34.9
20190408,30.53,0.69,43.08
20190409,30.86,1.2,43.73
20190410,31.53,0.03,38.42
20190411,30.22,0.01,39.27
20190412,31.03,0.0,32.24
20190413,30.28,0.0,35.23
20190414,30.39,0.0,29.05
20190415,29.87,0.0,26.7
20190416,31.03,0.0,35.51
20190417,30.6,2.75,45.6
20190418,30.57,5.03,45.33
20190419,30.02,2.61,51.04
20190420,27.85,6.61,63.92
20190421,28.86,1.45,58.11
20190422,29.15,4.95,56.18
20190423,27.31,5.66,60.63
20190424,28.92,0.0,48.14
20190425,28.61,0.0,45.1
20190426,29.6,0.0,46.81
20190427,30.4,0.01,43.79
20190428,29.57,0.0,47.28
20190429,29.85,0.0,46.44
20190430,29.48,13.82,56.43
20190501,26.5,21.26,67.68
20190502,28.46,0.0,55.57
20190503,28.51,0.0,54.73
20190504,28.25,0.0,56.71
20190505,30.07,0.79,54.24
20190506,30.29,0.56,55.84
20190507,28.39,10.75,62.94
20190508,25.76,6.48,75.74
20190509,28.39,4.03,61.92
20190510,29.4,0.28,57.8
20190511,29.5,0.39,58.18
20190512,29.68,1.3,58.41
20190513,29.36,1.76,59.66
20190514,29.14,3.06,59.43
20190515,28.23,5.49,66.79
20190516,29.54,1.89,60.57
20190517,28.27,5.71,64.69
20190518,28.3,2.83,63.3
20190519,30.27,2.38,51.95
20190520,29.94,0.0,51.89
20190521,29.84,0.49,48.77
20190522,28.73,2.11,63.0
20190523,28.09,1.38,65.58
20190524,28.42,0.62,65.51
20190525,28.2,4.65,66.92
20190526,28.04,8.55,69.83
20190527,29.43,2.2,63.34
20190528,30.0,4.29,59.31
20190529,25.97,7.22,78.06
20190530,26.7,4.2,70.64
20190531,25.43,3.65,78.28
20190601,27.03,3.79,70.28
20190602,28.32,13.68,70.31
20190603,26.13,1.55,75.6
20190604,27.07,10.03,72.17
20190605,26.5,11.42,75.46
20190606,26.89,0.83,75.53
20190607,27.36,3.07,72.88
20190608,26.31,0.42,75.36
20190609,26.99,0.86,65.98
20190610,26.08,0.05,68.32
20190611,26.44,0.03,66.52
20190612,26.83,0.0,67.82
20190613,25.83,0.01,69.69
20190614,26.08,1.06,65.1
20190615,27.13,1.86,65.19
20190616,27.44,0.12,66.15
20190617,26.66,0.0,67.32
20190618,27.03,0.09,65.67
20190619,27.62,2.54,66.17
20190620,26.67,0.33,62.08
20190621,25.37,0.13,68.39
20190622,25.19,1.03,72.95
20190623,25.46,2.82,69.77
20190624,26.32,2.57,66.85
20190625,26.79,1.04,65.46
20190626,25.38,1.33,73.74
20190627,26.6,1.68,68.69
20190628,26.47,0.07,67.69
20190629,26.04,0.0,68.7
20190630,25.63,0.0,69.91
20190701,27.25,0.02,65.6
20190702,26.39,0.0,69.42
20190703,26.08,0.0,69.71
20190704,25.93,0.38,71.75
20190705,25.69,0.54,72.38
20190706,25.09,0.4,74.01
20190707,25.63,0.06,69.48
20190708,25.74,0.01,69.95
20190709,24.93,0.33,73.78
20190710,25.24,2.85,67.91
20190711,25.0,1.13,67.36
20190712,26.31,2.87,64.42
20190713,26.03,11.78,68.55
20190714,25.01,19.78,78.63
20190715,25.42,2.44,70.21
20190716,24.8,0.53,71.44
20190717,25.11,0.7,69.47
20190718,22.92,6.55,78.66
20190719,23.71,1.26,78.68
20190720,24.73,0.13,73.46
20190721,25.51,0.17,71.28
20190722,23.89,4.03,78.37
20190723,24.12,7.12,75.09
20190724,24.4,0.78,75.14
20190725,24.74,5.56,72.61
20190726,24.03,0.2,75.23
20190727,24.46,0.03,72.29
20190728,24.65,0.74,72.24
20190729,24.89,0.29,73.43
20190730,24.5,0.01,69.28
20190731,25.36,0.0,65.82
20190801,26.5,0.03,66.42
20190802,25.27,0.01,68.24
20190803,24.84,0.09,72.13
20190804,24.45,0.44,67.48
20190805,23.38,1.34,76.67
20190806,24.11,3.2,73.02
20190807,24.21,2.74,76.67
20190808,24.7,7.84,76.1
20190809,24.52,3.6,75.54
20190810,24.61,0.02,71.15
20190811,24.87,1.19,71.36
20190812,24.89,3.23,70.55
20190813,24.99,1.54,72.65
20190814,24.68,2.51,76.5
20190815,24.67,1.15,74.7
20190816,24.15,25.27,78.53
20190817,23.81,18.23,81.74
20190818,22.73,35.27,87.16
20190819,24.04,14.55,83.71
20190820,23.83,13.51,86.48
20190821,22.44,9.11,87.57
20190822,22.74,1.24,83.74
20190823,22.52,1.8,83.43
20190824,22.81,0.03,82.17
20190825,22.62,0.75,80.95
20190826,23.48,0.46,77.78
20190827,23.57,0.07,77.79
20190828,23.52,1.42,79.69
20190829,23.78,10.2,81.76
20190830,23.38,0.67,79.7
20190831,23.64,0.19,80.17
20190901,22.7,1.05,84.43
20190902,23.07,4.71,83.1
20190903,23.66,5.75,81.59
20190904,22.95,0.85,80.93
20190905,23.49,2.35,79.86
20190906,24.05,1.57,81.01
20190907,24.42,0.2,77.7
20190908,23.97,0.23,78.98
20190909,23.87,0.01,79.3
20190910,24.83,0.72,79.65
20190911,24.41,2.53,82.06
20190912,23.41,9.55,85.35
20190913,23.54,7.2,82.5
20190914,24.23,4.22,80.61
20190915,24.42,2.99,80.28
20190916,24.38,13.18,79.09
20190917,23.59,9.77,84.02
20190918,24.04,7.99,83.78
20190919,22.9,2.93,84.96
20190920,23.55,0.83,79.14
20190921,25.35,1.67,77.67
20190922,23.03,29.84,90.66
20190923,23.84,18.89,86.53
20190924,23.34,33.37,88.22
20190925,23.05,20.6,91.89
20190926,22.78,3.35,86.54
20190927,23.61,0.58,81.93
20190928,23.3,0.76,85.0
20190929,23.14,0.43,84.01
20190930,21.81,0.22,87.56
20191001,23.69,6.36,81.49
20191002,24.53,4.82,81.47
20191003,24.58,7.78,81.43
20191004,24.02,11.39,84.45
20191005,23.27,7.42,88.66
20191006,23.65,1.19,85.95
20191007,23.87,13.58,84.8
20191008,24.35,8.51,84.07
20191009,23.79,2.23,87.69
20191010,23.31,0.8,86.88
20191011,23.56,0.65,87.13
20191012,23.77,1.02,85.54
20191013,23.88,1.75,86.0
20191014,23.86,0.35,86.31
20191015,23.5,2.01,87.96
20191016,22.9,15.69,87.95
20191017,22.87,4.2,86.4
20191018,22.88,11.07,88.79
20191019,23.04,4.19,88.12
20191020,22.78,9.05,88.57
20191021,22.43,13.92,89.21
20191022,23.0,18.78,88.54
20191023,22.61,2.46,87.26
20191024,22.27,0.04,86.96
20191025,22.18,4.07,87.02
20191026,22.59,0.46,87.46
20191027,22.84,8.15,85.73
20191028,22.66,1.48,88.31
20191029,21.09,6.65,85.98
20191030,21.66,6.7,92.53
20191031,22.15,2.39,90.82
20191101,22.63,0.31,84.78
20191102,22.6,0.03,87.49
20191103,22.69,0.22,85.52
20191104,22.68,0.02,80.85
20191105,23.39,0.0,78.27
20191106,24.13,0.02,77.63
20191107,23.46,7.55,81.22
20191108,23.16,8.61,89.17
20191109,23.87,8.89,87.3
20191110,23.71,5.09,82.94
20191111,22.15,0.18,83.56
20191112,21.71,0.03,85.29
20191113,21.72,0.01,84.73
20191114,22.33,6.55,88.16
20191115,22.71,0.89,87.26
20191116,22.8,0.39,86.47
20191117,22.06,0.12,80.62
20191118,22.85,0.19,87.27
20191119,23.14,0.06,84.13
20191120,22.78,3.07,88.49
20191121,23.0,1.87,86.95
20191122,21.44,0.05,84.36
20191123,20.8,0.0,83.85
20191124,21.32,0.02,85.65
20191125,21.53,0.0,84.81
20191126,21.06,1.16,84.59
20191127,21.82,3.55,87.32
20191128,22.33,1.24,87.95
20191129,22.63,0.48,86.55
20191130,22.54,1.62,88.66
20191201,22.76,9.15,89.15
20191202,21.84,1.85,88.2
20191203,21.47,0.62,86.38
20191204,21.51,0.03,84.57
20191205,20.74,0.0,83.21
20191206,20.0,0.0,82.17
20191207,21.22,0.17,84.45
20191208,21.66,0.06,83.54
20191209,21.06,0.01,81.85
20191210,20.67,0.0,81.01
20191211,21.39,0.0,79.58
20191212,21.46,0.0,78.85
20191213,22.23,0.0,81.95
20191214,21.7,4.74,86.62
20191215,21.65,0.23,81.75
20191216,21.73,0.31,82.0
20191217,21.32,0.07,79.44
20191218,21.53,0.01,80.32
20191219,21.61,0.0,79.18
20191220,21.32,0.0,79.69
20191221,21.71,0.0,79.67
20191222,22.05,0.0,77.63
20191223,21.37,0.0,75.34
20191224,21.95,0.17,78.56
20191225,23.04,0.15,80.03
20191226,23.98,0.02,73.6
20191227,23.28,0.0,72.03
20191228,22.33,0.0,75.62
20191229,22.64,0.0,74.14
20191230,22.5,0.0,74.55
20191231,22.93,0.1,76.53
20200101,23.33,0.05,76.6
20200102,23.85,0.0,74.68
20200103,24.2,0.0,73.96
20200104,24.87,0.0,73.07
20200105,24.57,0.0,74.66
20200106,23.91,0.07,73.88
20200107,22.88,0.02,72.16
20200108,22.74,0.0,69.46
20200109,22.88,0.0,70.3
20200110,22.28,0.0,72.62
20200111,21.59,0.0,65.13
20200112,21.72,0.0,70.28
20200113,22.35,0.0,70.28
20200114,21.84,0.0,65.72
20200115,20.78,0.0,62.7
20200116,20.75,0.0,66.68
20200117,21.99,0.0,68.47
20200118,23.71,0.31,73.73
20200119,23.86,0.15,71.49
20200120,23.53,0.0,63.68
20200121,22.34,0.0,62.38
20200122,22.46,0.0,66.84
20200123,23.13,0.0,66.09
20200124,22.49,0.0,58.29
20200125,21.68,0.0,51.68
20200126,22.35,0.0,57.12
20200127,23.18,0.0,56.29
20200128,24.21,0.0,55.86
20200129,24.15,0.0,59.2
20200130,24.55,0.0,57.49
20200131,24.47,0.0,57.21
20200201,24.21,0.0,62.7
20200202,23.98,0.0,59.71
20200203,23.77,0.0,58.47
20200204,23.9,0.0,59.58
20200205,24.23,0.07,59.18
20200206,24.6,0.0,53.92
20200207,24.9,0.0,58.66
20200208,26.03,0.0,52.23
20200209,25.07,0.04,58.48
20200210,25.18,0.02,57.37
20200211,24.7,0.0,55.8
20200212,24.13,0.0,53.48
20200213,24.63,0.0,50.04
20200214,25.22,0.0,49.97
20200215,25.7,0.0,42.73
20200216,24.64,0.0,40.19
20200217,23.64,0.0,39.64
20200218,24.26,0.0,48.19
20200219,24.43,0.0,53.91
20200220,24.42,0.0,48.75
20200221,24.34,0.0,47.14
20200222,25.08,0.0,54.86
20200223,25.74,0.0,50.59
20200224,26.03,0.0,50.89
20200225,26.43,0.0,51.09
20200226,27.07,0.0,52.84
20200227,26.83,0.0,53.9
20200228,26.98,0.0,52.98
20200229,27.27,0.0,50.34
20200301,27.52,0.13,51.0
20200302,25.46,0.31,56.75
20200303,27.82,0.03,49.37
20200304,28.1,0.06,51.79
20200305,28.06,0.19,51.03
20200306,27.8,0.53,53.91
20200307,26.92,0.93,59.61
20200308,28.28,0.07,54.53
20200309,28.56,0.02,50.04
20200310,28.35,0.0,41.28
20200311,27.94,0.0,44.99
20200312,27.77,0.0,40.11
20200313,27.33,0.0,38.73
20200314,27.69,0.0,46.21
20200315,28.32,0.0,48.72
20200316,28.46,0.0,47.37
20200317,27.77,0.0,46.03
20200318,27.46,0.0,40.58
20200319,28.35,0.0,35.89
20200320,28.34,1.39,42.58
20200321,29.45,0.09,43.01
20200322,29.97,0.0,38.79
20200323,29.57,1.95,41.69
20200324,29.25,0.06,38.43
20200325,28.3,0.0,45.74
20200326,28.26,0.0,44.95
20200327,27.84,0.0,47.18
20200328,27.91,0.0,37.84
20200329,27.8,0.0,36.24
20200330,28.2,0.0,32.79
20200331,28.28,0.0,36.12
20200401,28.76,0.0,38.9
20200402,29.71,0.0,38.24
20200403,29.38,0.0,40.09
20200404,28.81,0.0,42.38
20200405,29.97,0.26,49.23
20200406,29.32,2.82,52.99
20200407,25.25,5.85,63.47
20200408,28.08,1.65,53.78
20200409,27.51,9.72,61.82
20200410,27.33,0.2,56.61
20200411,27.18,0.0,55.44
20200412,27.75,0.0,48.09
20200413,28.48,0.0,42.52
20200414,28.27,0.0,38.25
20200415,28.08,0.0,41.6
20200416,28.98,0.0,45.58
20200417,30.04,0.0,46.94
20200418,30.39,0.0,46.24
20200419,30.14,0.0,47.49
20200420,29.55,0.0,46.6
20200421,29.61,0.0,41.56
20200422,30.93,0.0,44.13
20200423,30.77,0.73,47.78
20200424,29.65,1.8,54.35
20200425,29.01,0.45,58.45
20200426,28.93,2.04,57.19
20200427,28.03,0.81,60.92
20200428,27.06,14.33,71.51
20200429,24.03,8.9,80.99
20200430,27.92,0.07,60.25
20200501,28.96,1.19,58.36
20200502,29.87,0.16,56.49
20200503,29.71,0.19,53.34
20200504,30.28,0.05,48.09
20200505,30.7,0.0,46.65
20200506,29.82,0.16,51.45
20200507,29.91,0.18,53.77
20200508,30.02,0.05,52.72
20200509,31.09,0.0,45.33
20200510,30.42,0.0,46.11
20200511,29.85,0.0,47.99
20200512,28.34,0.0,51.83
20200513,30.21,0.01,35.83
20200514,30.49,0.01,44.3
20200515,30.85,0.01,39.26
20200516,31.53,0.02,39.58
20200517,29.57,2.37,53.09
20200518,27.03,1.61,65.42
20200519,28.4,0.04,59.93
20200520,29.3,0.0,56.7
20200521,29.37,0.9,52.52
20200522,30.08,0.01,47.27
20200523,31.93,0.0,41.29
20200524,31.89,3.6,45.35
20200525,29.48,2.97,60.78
20200526,28.85,3.55,65.9
20200527,27.95,6.3,72.83
20200528,27.69,9.12,72.05
20200529,25.92,14.28,75.94
20200530,26.8,1.16,69.93
20200531,27.53,0.29,67.94
20200601,25.93,1.57,76.15
20200602,25.96,0.71,71.01
20200603,25.08,0.03,76.14
20200604,24.75,0.01,77.28
20200605,25.82,1.42,72.77
20200606,25.18,2.7,74.29
20200607,26.57,0.26,67.1
20200608,26.27,0.08,62.9
20200609,26.37,0.0,60.45
20200610,26.49,0.38,66.94
20200611,25.02,2.06,73.16
20200612,24.85,4.07,68.46
20200613,25.75,0.47,64.26
20200614,25.4,0.09,66.32
20200615,26.87,0.25,65.84
20200616,26.42,0.02,69.28
20200617,25.73,0.19,71.75
20200618,25.62,0.27,68.39
20200619,26.08,0.03,66.18
20200620,25.52,0.12,66.11
20200621,26.23,1.51,66.52
20200622,25.84,0.83,64.56
20200623,25.04,4.13,62.8
20200624,25.54,13.06,69.33
20200625,23.76,35.67,82.43
20200626,25.27,5.17,76.81
20200627,25.31,26.93,78.37
20200628,24.96,10.52,83.64
20200629,24.5,3.98,84.78
20200630,24.74,4.13,81.09
20200701,24.49,0.02,75.39
20200702,23.12,4.0,80.14
20200703,23.24,12.85,82.68
20200704,24.08,3.84,76.38
20200705,23.21,1.27,77.65
20200706,23.96,0.33,77.9
20200707,23.96,1.07,78.32
20200708,23.58,7.23,84.6
20200709,23.25,21.56,84.55
20200710,24.03,9.64,79.64
20200711,23.97,0.77,80.9
20200712,24.61,1.38,80.11
20200713,23.7,0.44,82.33
20200714,23.69,0.12,84.12
20200715,23.73,6.53,82.56
20200716,23.62,7.29,82.39
20200717,23.42,0.67,81.87
20200718,24.23,3.5,80.6
20200719,24.3,12.02,80.73
20200720,24.12,11.51,85.29
20200721,24.42,0.49,80.1
20200722,24.41,1.99,81.8
20200723,23.59,15.04,88.29
20200724,23.94,7.79,83.65
20200725,23.28,9.11,83.01
20200726,23.13,0.25,82.8
20200727,23.89,2.1,80.45
20200728,24.26,8.8,82.75
20200729,22.56,9.73,90.08
20200730,23.49,2.67,87.48
20200731,24.13,1.82,83.22
20200801,23.46,14.41,85.09
20200802,22.56,4.75,86.92
20200803,23.48,2.5,83.75
20200804,23.3,3.97,79.26
20200805,23.27,2.69,79.73
20200806,24.8,1.21,79.65
20200807,24.29,0.23,82.02
20200808,23.36,5.86,83.48
20200809,22.63,7.65,84.78
20200810,22.8,0.27,85.85
20200811,23.64,6.65,83.58
20200812,23.72,0.19,82.89
20200813,23.65,0.0,82.44
20200814,23.75,0.0,80.3
20200815,23.46,0.01,81.39
20200816,23.87,0.12,81.7
20200817,23.98,0.69,81.81
20200818,24.3,0.56,81.24
20200819,23.83,0.58,83.05
20200820,23.81,0.02,82.49
20200821,24.42,0.0,80.85
20200822,24.4,9.58,82.48
20200823,24.05,14.36,83.79
20200824,24.48,9.4,81.05
20200825,25.01,0.08,77.31
20200826,23.96,7.46,83.38
20200827,23.84,0.38,80.7
20200828,24.68,0.0,75.76
20200829,24.83,0.0,77.87
20200830,24.8,9.88,81.49
20200831,24.34,9.9,83.92
20200901,22.71,7.53,90.21
20200902,22.52,33.55,91.9
20200903,23.52,5.39,87.64
20200904,24.31,3.62,84.76
20200905,24.37,2.26,84.23
20200906,24.23,2.05,86.66
20200907,23.44,10.35,88.25
20200908,24.28,7.09,81.55
20200909,24.09,19.64,85.26
20200910,22.78,8.91,88.7
20200911,22.7,1.65,86.47
20200912,21.91,3.14,88.16
20200913,21.41,5.3,85.49
20200914,22.39,15.74,81.52
20200915,23.14,1.33,83.97
20200916,23.2,0.01,85.51
20200917,23.65,0.12,84.28
20200918,23.28,3.33,84.15
20200919,22.9,5.77,84.25
20200920,21.73,3.06,83.18
20200921,22.04,1.26,83.23
20200922,21.48,0.35,79.24
20200923,22.72,0.01,80.59
20200924,23.11,0.03,81.87
20200925,22.47,9.08,85.85
20200926,21.42,0.9,88.7
20200927,22.76,0.44,84.85
20200928,23.95,1.34,82.95
20200929,23.57,43.06,88.3
20200930,22.49,5.58,88.73
20201001,22.72,0.06,81.81
20201002,23.33,3.5,83.61
20201003,22.6,6.08,86.56
20201004,22.33,1.04,86.26
20201005,23.18,0.01,81.98
20201006,24.11,4.55,80.3
20201007,24.16,5.29,83.16
20201008,23.76,3.71,84.15
20201009,23.28,19.39,86.05
20201010,22.82,21.88,89.99
20201011,22.1,2.27,88.71
20201012,22.3,5.93,87.03
20201013,22.15,3.85,88.78
20201014,22.0,0.71,83.72
20201015,22.27,0.19,86.39
20201016,22.3,0.18,87.08
20201017,22.65,3.8,81.93
20201018,23.15,9.74,84.77
20201019,22.71,16.94,89.17
20201020,22.99,14.52,88.95
20201021,22.92,13.15,91.48
20201022,23.09,8.5,89.23
20201023,22.97,1.55,89.75
20201024,23.13,5.02,87.15
20201025,23.5,0.64,76.53
20201026,23.53,0.02,81.62
20201027,22.63,0.0,81.69
20201028,22.51,0.0,82.34
20201029,22.0,0.88,84.71
20201030,22.35,0.17,81.83
20201031,23.18,0.0,76.97
20201101,23.38,0.22,77.87
20201102,23.44,1.06,83.35
20201103,23.36,0.08,84.29
20201104,23.72,0.12,84.93
20201105,23.56,5.7,84.37
20201106,23.02,3.31,83.76
20201107,23.23,0.5,86.31
20201108,22.92,2.08,88.4
20201109,22.18,0.08,83.69
20201110,19.91,0.0,78.72
20201111,20.54,2.14,85.99
20201112,22.11,4.29,91.11
20201113,22.4,9.21,89.83
20201114,22.47,1.21,87.53
20201115,22.61,7.04,89.74
20201116,22.42,12.75,90.5
20201117,22.18,3.45,88.38
20201118,22.42,1.07,87.6
20201119,22.08,0.23,85.98
20201120,21.49,0.0,84.42
20201121,19.98,0.0,77.16
20201122,19.03,0.0,76.24
20201123,19.31,0.0,79.66
20201124,20.65,0.07,86.29
20201125,21.67,3.59,88.08
20201126,19.9,29.66,92.87
20201127,20.2,0.48,90.16
20201128,20.69,0.47,88.08
20201129,21.75,0.78,87.21
20201130,21.35,0.37,86.34
20201201,20.01,0.0,82.89
20201202,20.77,0.94,83.1
20201203,20.57,8.97,92.04
20201204,20.9,4.25,91.91
20201205,21.67,1.08,87.39
20201206,21.94,6.21,87.73
20201207,22.24,5.62,88.4
20201208,22.04,3.63,88.86
20201209,21.94,0.53,87.16
20201210,20.32,0.02,80.04
20201211,19.53,0.0,79.84
20201212,19.12,0.0,80.58
20201213,19.15,0.0,80.05
20201214,19.3,0.0,81.39
20201215,19.42,0.01,82.25
20201216,20.99,1.95,85.59
20201217,21.36,0.33,86.91
20201218,19.8,0.01,87.38
20201219,20.17,0.01,85.18
20201220,19.79,0.0,82.86
20201221,18.02,0.0,81.64
20201222,18.93,0.0,78.86
20201223,19.85,0.0,79.73
20201224,20.76,0.0,81.4
20201225,20.63,0.0,81.74
20201226,19.52,0.0,79.85
20201227,19.22,0.0,77.83
20201228,19.53,0.0,74.22
20201229,20.65,0.19,79.17
20201230,21.78,2.66,83.86
20201231,21.7,3.32,85.16
20210101,19.77,0.3,80.55
20210102,20.56,0.82,83.78
20210103,21.72,0.66,82.89
20210104,21.7,0.27,81.17
20210105,21.67,1.0,86.33
20210106,22.17,12.86,86.5
20210107,21.91,5.75,88.14
20210108,22.73,0.86,85.62
20210109,22.75,0.55,84.17
20210110,22.0,0.11,84.22
20210111,21.64,0.19,83.64
20210112,20.59,0.8,85.22
20210113,21.33,0.87,79.65
20210114,21.27,1.25,81.64
20210115,22.05,0.17,77.07
20210116,21.98,0.01,74.71
20210117,21.65,0.0,74.93
20210118,20.85,0.0,73.33
20210119,20.92,0.0,73.29
20210120,21.94,0.0,71.33
20210121,23.41,0.01,73.92
20210122,23.59,0.07,73.46
20210123,22.85,0.04,72.14
20210124,22.14,0.0,69.62
20210125,20.96,0.0,68.31
20210126,20.7,0.0,63.25
20210127,20.13,0.0,65.17
20210128,20.85,0.0,69.47
20210129,21.74,0.0,71.08
20210130,22.53,0.0,65.58
20210131,22.4,0.04,65.1
20210201,21.33,0.0,62.85
20210202,21.8,0.0,65.98
20210203,22.15,0.0,69.52
20210204,21.99,0.0,63.92
20210205,21.72,0.0,63.25
20210206,21.41,0.0,61.83
20210207,20.97,0.0,53.5
20210208,20.7,0.0,59.77
20210209,20.66,0.0,61.74
20210210,20.47,0.0,56.53
20210211,20.76,0.0,58.91
20210212,20.91,0.0,59.33
20210213,21.19,0.0,59.39
20210214,21.85,0.0,56.62
20210215,22.94,0.0,56.19
20210216,23.71,0.0,58.6
20210217,23.63,0.0,57.02
20210218,23.23,0.0,60.39
20210219,23.16,4.23,62.62
20210220,22.94,3.56,71.62
20210221,22.14,2.83,74.26
20210222,23.46,0.61,63.23
20210223,24.51,0.06,60.78
20210224,24.43,0.0,56.69
20210225,25.29,0.0,53.59
20210226,25.42,0.0,47.84
20210227,25.97,0.0,45.33
20210228,25.25,0.0,46.37
20210301,24.93,0.0,47.13
20210302,25.24,0.0,47.96
20210303,24.95,0.0,43.8
20210304,23.71,0.0,49.23
20210305,24.46,0.0,45.87
20210306,26.11,0.0,45.21
20210307,26.05,0.0,48.05
20210308,25.7,0.0,50.17
20210309,26.15,0.0,49.13
20210310,26.97,0.11,53.58
20210311,27.01,0.75,53.24
20210312,26.12,0.26,48.06
20210313,25.8,0.0,47.15
20210314,26.32,0.0,47.62
20210315,26.88,0.0,43.54
20210316,27.36,0.0,42.99
20210317,27.08,0.0,41.91
20210318,26.4,0.0,46.43
20210319,25.36,0.0,42.88
20210320,26.47,0.0,35.73
20210321,27.12,0.0,37.22
20210322,27.75,0.0,38.74
20210323,27.95,0.0,43.52
20210324,28.24,0.0,44.68
20210325,28.33,0.17,40.25
20210326,28.78,0.0,41.18
20210327,27.55,0.0,48.34
20210328,27.8,0.0,46.93
20210329,29.03,0.0,41.68
20210330,30.1,0.0,37.6
20210331,32.11,0.0,30.15
20210401,30.86,0.0,28.14
20210402,30.02,0.0,28.61
20210403,31.36,0.01,32.7
20210404,32.06,0.69,29.88
20210405,31.34,0.36,37.73
20210406,29.68,0.01,43.71
20210407,29.75,0.0,37.45
20210408,29.06,0.0,32.9
20210409,28.78,0.0,39.51
20210410,28.9,0.0,45.97
20210411,29.01,0.01,49.12
20210412,28.78,4.19,52.7
20210413,28.4,0.75,52.76
20210414,27.49,6.27,59.89
20210415,25.08,12.02,75.62
20210416,26.85,0.63,63.57
20210417,27.62,0.13,60.99
20210418,27.97,0.01,58.73
20210419,27.82,0.78,61.01
20210420,27.59,2.53,61.8
20210421,27.0,5.45,67.11
20210422,28.05,0.84,60.02
20210423,26.73,26.49,66.93
20210424,27.06,5.5,67.1
20210425,27.44,1.68,64.54
20210426,26.47,0.15,67.59
20210427,26.75,0.0,64.39
20210428,27.63,0.0,58.75
20210429,28.18,0.03,56.81
20210430,27.05,1.34,64.56
20210501,27.14,3.03,67.41
20210502,26.96,0.18,65.93
20210503,27.18,0.85,65.61
20210504,27.95,0.15,63.8
20210505,28.24,0.12,60.95
20210506,28.59,0.03,59.39
20210507,28.15,2.57,61.67
20210508,28.12,0.06,60.72
20210509,28.72,0.04,60.07
20210510,28.43,0.14,63.48
20210511,27.64,0.18,68.79
20210512,27.28,10.98,73.18
20210513,26.9,6.83,75.24
20210514,27.77,2.61,65.32
20210515,25.3,1.5,76.38
20210516,26.09,0.34,74.68
20210517,27.53,0.49,67.7
20210518,27.0,0.67,69.49
20210519,25.71,165.75,83.08
20210520,24.65,55.07,82.79
20210521,23.99,10.14,82.55
20210522,24.63,3.67,79.59
20210523,25.01,1.21,78.01
20210524,24.96,0.03,76.07
20210525,23.54,11.48,85.31
20210526,24.03,1.36,76.72
20210527,24.83,0.0,76.19
20210528,25.41,0.0,73.53
20210529,25.18,1.23,74.31
20210530,24.83,1.7,76.35
20210531,25.48,0.08,75.27
20210601,25.83,3.86,77.75
20210602,25.89,3.08,77.13
20210603,25.36,11.81,81.58
20210604,24.19,11.62,88.14
20210605,22.83,8.46,84.21
20210606,24.56,0.1,73.83
20210607,24.25,0.44,77.81
20210608,25.32,0.16,73.72
20210609,24.53,1.52,79.16
20210610,24.87,0.02,75.25
20210611,23.66,0.0,79.71
20210612,23.32,1.73,76.92
20210613,23.83,0.54,71.59
20210614,23.18,0.71,76.2
20210615,23.11,0.66,79.17
20210616,24.44,0.98,76.44
20210617,24.37,0.51,77.98
20210618,23.69,0.01,78.74
20210619,23.88,0.0,80.63
20210620,24.12,0.0,79.27
20210621,24.81,0.05,76.57
20210622,24.92,0.4,76.36
20210623,24.79,6.04,78.3
20210624,24.61,1.02,76.37
20210625,24.0,0.0,75.74
20210626,24.03,1.14,76.58
20210627,23.07,0.8,74.01
20210628,23.79,0.61,71.86
20210629,25.77,0.53,72.83
20210630,25.95,1.47,78.1
20210701,24.12,32.34,88.58
20210702,24.16,2.29,84.31
20210703,23.94,5.36,82.84
20210704,24.23,31.32,81.65
20210705,24.62,2.17,79.71
20210706,24.74,0.4,81.73
20210707,24.37,1.15,83.1
20210708,24.05,8.63,83.99
20210709,23.98,8.23,83.64
20210710,22.6,1.55,82.36
20210711,22.35,0.01,80.36
20210712,22.66,0.04,80.99
20210713,23.95,1.77,80.08
20210714,23.59,13.04,82.57
20210715,23.01,7.64,84.58
20210716,24.09,7.02,81.86
20210717,23.75,17.73,84.58
20210718,23.21,10.95,88.08
20210719,23.98,1.9,81.62
20210720,23.94,0.47,79.97
20210721,23.79,0.88,80.28
20210722,23.26,1.23,82.16
20210723,24.14,0.48,78.03
20210724,24.47,2.29,79.87
20210725,23.33,19.7,84.03
20210726,23.58,5.49,82.53
20210727,23.73,0.58,81.28
20210728,24.21,0.02,77.66
20210729,23.78,0.01,80.38
20210730,23.55,0.0,81.28
20210731,23.99,0.06,79.6
20210801,24.06,0.01,78.63
20210802,23.85,0.01,76.31
20210803,24.13,0.1,77.86
20210804,24.31,0.09,78.36
20210805,24.26,1.78,78.2
20210806,24.73,6.02,79.03
20210807,24.5,3.82,81.88
20210808,24.76,1.26,79.9
20210809,24.7,6.18,79.89
20210810,23.59,10.18,82.71
20210811,24.04,0.86,81.66
20210812,23.14,0.8,84.65
20210813,23.84,11.16,81.7
20210814,23.36,0.91,82.55
20210815,23.25,0.01,80.21
20210816,23.84,2.14,79.04
20210817,24.27,0.58,77.03
20210818,23.41,2.77,77.52
20210819,22.97,0.64,75.34
20210820,22.95,10.13,78.23
20210821,23.14,5.23,80.51
20210822,23.57,2.83,81.82
20210823,23.88,0.95,82.11
20210824,24.85,2.89,77.06
20210825,24.92,0.93,77.09
20210826,24.57,2.91,81.56
20210827,24.06,17.01,84.95
20210828,23.48,6.17,82.57
20210829,23.19,2.02,79.66
20210830,23.07,0.2,79.07
20210831,24.39,0.41,76.24
20210901,24.13,5.55,78.99
20210902,23.01,26.03,87.12
20210903,23.54,8.92,79.49
20210904,22.78,5.17,85.95
20210905,23.44,7.86,81.44
20210906,22.73,7.05,79.6
20210907,22.67,0.41,81.15
20210908,22.88,3.71,84.97
20210909,23.46,0.63,81.53
20210910,23.52,0.0,82.61
20210911,23.09,0.69,84.82
20210912,23.72,0.31,81.97
20210913,23.62,0.04,82.61
20210914,24.27,0.0,81.17
20210915,24.44,0.3,81.15
20210916,24.28,0.14,81.64
20210917,24.44,0.1,79.05
20210918,25.25,0.11,74.84
20210919,24.02,14.62,82.79
20210920,24.06,15.16,84.47
20210921,23.79,3.01,83.28
20210922,24.14,4.09,81.35
20210923,24.53,8.02,80.92
20210924,24.56,2.43,81.15
20210925,24.08,8.51,85.05
20210926,22.92,1.47,85.98
20210927,23.57,2.41,81.98
20210928,22.62,2.07,83.19
20210929,22.99,2.24,78.85
20210930,24.08,3.26,76.22
20211001,24.45,1.59,82.01
20211002,23.91,6.04,86.05
20211003,23.68,10.51,84.0
20211004,23.8,7.02,84.52
20211005,23.73,17.99,86.42
20211006,23.27,2.21,87.09
20211007,24.81,1.55,81.0
20211008,24.36,5.35,86.54
20211009,23.55,4.55,88.78
20211010,23.5,7.43,86.56
20211011,23.73,14.28,85.42
20211012,22.96,10.24,87.74
20211013,22.5,3.57,87.0
20211014,23.87,12.34,83.3
20211015,24.03,18.1,86.91
20211016,24.03,10.81,88.66
20211017,22.77,2.89,92.24
20211018,23.57,1.33,88.14
20211019,23.0,5.61,86.43
20211020,23.56,6.38,86.25
20211021,23.23,9.44,89.67
20211022,23.43,2.39,88.27
20211023,23.12,5.51,87.92
20211024,23.49,4.88,81.64
20211025,22.95,0.92,86.37
20211026,23.26,1.01,85.24
20211027,22.97,0.38,83.87
20211028,22.64,0.17,83.57
20211029,22.07,2.57,86.52
20211030,22.45,2.79,87.86
20211031,22.32,1.33,89.11
20211101,21.96,3.44,91.18
20211102,21.77,8.19,90.24
20211103,22.23,1.8,88.88
20211104,22.52,22.01,88.91
20211105,22.83,10.2,86.73
20211106,22.93,1.88,86.72
20211107,22.42,6.99,87.54
20211108,21.48,3.95,94.13
20211109,21.23,1.35,90.18
20211110,20.72,3.31,86.73
20211111,19.76,17.65,89.84
20211112,21.18,16.87,91.01
20211113,22.98,6.13,85.14
20211114,22.84,4.74,88.68
20211115,23.36,20.03,88.84
20211116,22.62,4.4,91.85
20211117,22.62,7.75,91.62
20211118,20.41,43.21,91.74
20211119,22.51,17.4,92.68
20211120,22.54,4.56,92.3
20211121,22.17,3.23,81.85
20211122,22.13,1.38,86.18
20211123,22.73,0.69,89.47
20211124,22.58,1.46,86.74
20211125,21.56,2.21,89.75
20211126,21.55,4.54,88.52
20211127,21.07,1.43,90.79
20211128,20.72,3.83,91.99
20211129,20.56,4.32,92.24
20211130,21.22,1.48,90.92
20211201,22.13,0.56,89.37
20211202,22.35,0.22,87.19
20211203,21.59,0.28,85.02
20211204,21.75,0.52,79.15
20211205,23.17,0.55,81.4
20211206,22.62,1.15,87.33
20211207,22.37,0.25,87.04
20211208,21.39,0.1,84.03
20211209,22.5,2.58,86.39
20211210,21.17,0.16,85.59
20211211,21.32,0.35,88.41
20211212,21.28,0.76,88.14
20211213,21.35,1.44,89.0
20211214,20.67,0.77,88.48
20211215,20.76,0.07,85.2
20211216,20.36,0.0,84.62
20211217,20.31,0.0,82.64
20211218,19.25,0.0,80.53
20211219,17.91,0.0,79.8
20211220,17.93,0.0,82.9
20211221,18.75,0.0,77.86
20211222,18.52,0.0,80.09
20211223,18.67,0.0,77.81
20211224,18.23,0.0,74.25
20211225,19.01,0.0,78.65
20211226,19.06,0.0,82.54
20211227,19.09,0.0,82.89
20211228,19.14,0.0,83.58
20211229,19.49,0.0,83.45
20211230,20.02,1.03,85.01
20211231,21.27,2.53,87.33
20220101,21.26,2.32,87.29
20220102,20.71,0.26,84.99
20220103,20.1,0.0,80.54
20220104,20.33,0.0,82.85
20220105,20.37,0.0,79.31
20220106,20.33,0.0,82.63
20220107,20.79,0.0,83.21
20220108,21.32,0.0,83.86
20220109,21.28,0.0,82.66
20220110,20.57,0.0,79.66
20220111,20.94,0.0,79.93
20220112,21.54,0.0,81.38
20220113,21.99,0.0,81.39
20220114,22.48,0.0,79.72
20220115,22.94,0.0,75.96
20220116,22.15,0.38,81.11
20220117,21.82,0.18,79.83
20220118,21.14,0.0,78.06
20220119,20.95,0.0,74.62
20220120,20.79,0.0,67.69
20220121,21.73,0.0,65.67
20220122,21.44,0.0,67.38
20220123,20.8,0.01,70.92
20220124,21.07,0.0,65.15
20220125,21.66,0.12,75.46
20220126,22.33,0.15,78.78
20220127,22.0,0.28,75.32
20220128,21.39,0.27,75.47
20220129,21.88,0.02,76.37
20220130,23.18,0.0,75.19
20220131,23.95,0.0,72.5
20220201,23.57,0.0,72.62
20220202,22.56,0.0,67.82
20220203,22.0,0.0,69.21
20220204,23.08,0.0,63.4
20220205,22.91,0.0,69.0
20220206,23.26,0.0,72.5
20220207,22.98,0.0,70.79
20220208,22.91,0.0,67.76
20220209,22.34,0.0,66.3
20220210,21.81,0.0,58.92
20220211,22.14,0.0,61.26
20220212,22.8,0.0,64.16
20220213,22.29,0.0,63.97
20220214,22.64,0.0,64.9
20220215,23.12,0.0,65.71
20220216,23.42,0.0,62.38
20220217,23.46,0.0,60.84
20220218,23.27,0.0,62.39
20220219,23.37,0.0,61.44
20220220,24.29,0.0,58.64
20220221,25.26,0.0,61.38
20220222,25.49,0.0,57.56
20220223,23.95,0.0,59.86
20220224,23.02,0.0,56.88
20220225,23.12,0.0,52.39
20220226,22.38,0.0,58.05
20220227,24.15,0.0,60.02
20220228,23.67,0.0,53.75
20220301,23.99,0.0,51.39
20220302,23.51,0.0,42.56
20220303,23.45,0.0,44.23
20220304,24.21,0.0,39.13
20220305,24.79,0.0,49.04
20220306,24.93,0.01,53.14
20220307,24.03,0.39,57.05
20220308,25.64,0.02,51.41
20220309,26.37,0.0,47.12
20220310,26.36,0.0,41.21
20220311,26.0,0.0,37.14
20220312,26.16,0.0,34.64
20220313,25.9,0.0,35.95
20220314,27.02,0.0,38.78
20220315,27.75,0.0,37.64
20220316,27.53,0.0,35.48
20220317,28.05,0.0,30.61
20220318,28.38,0.0,33.34
20220319,29.27,0.01,34.78
20220320,27.38,1.05,56.22
20220321,27.75,8.17,58.74
20220322,27.23,6.16,64.62
20220323,27.84,0.94,59.55
20220324,27.82,0.35,60.07
20220325,27.85,0.29,55.92
20220326,28.35,0.23,55.25
20220327,28.98,0.08,52.64
20220328,29.04,0.0,51.29
20220329,29.7,0.02,47.44
20220330,30.21,0.14,43.58
20220331,30.46,0.0,41.14
20220401,30.08,0.14,39.99
20220402,29.07,0.21,44.14
20220403,29.13,0.0,45.18
20220404,29.14,0.0,47.59
20220405,28.5,0.0,46.61
20220406,28.77,0.12,44.44
20220407,28.54,2.82,48.79
20220408,28.6,1.93,53.6
20220409,28.94,0.29,52.65
20220410,29.19,0.01,45.21
20220411,28.34,0.01,48.79
20220412,29.48,0.13,47.67
20220413,27.83,3.38,58.35
20220414,25.22,17.83,69.39
20220415,28.32,0.18,58.25
20220416,29.15,2.61,58.46
20220417,27.79,14.83,66.86
20220418,27.4,10.11,65.1
20220419,27.33,1.64,65.43
20220420,28.37,0.03,58.47
20220421,27.68,0.0,62.55
20220422,27.06,0.07,65.05
20220423,25.98,5.03,69.89
20220424,28.03,0.08,55.5
20220425,27.81,0.0,57.2
20220426,28.69,0.0,51.12
20220427,28.7,0.0,55.3
20220428,28.95,0.0,55.04
20220429,30.17,0.1,50.24
20220430,30.05,0.35,55.58
20220501,30.31,7.43,56.77
20220502,29.43,6.38,62.61
20220503,28.3,5.79,65.74
20220504,28.88,1.44,62.58
20220505,27.46,1.71,66.87
20220506,27.77,4.01,63.37
20220507,28.33,14.17,63.83
20220508,28.31,1.77,64.63
20220509,27.99,4.66,66.76
20220510,27.2,3.66,68.11
20220511,26.07,4.91,71.13
20220512,24.56,4.53,77.42
20220513,25.94,1.79,73.18
20220514,25.83,4.74,74.84
20220515,24.17,26.03,87.27
20220516,25.56,22.0,81.81
20220517,25.98,42.64,72.43
20220518,25.44,9.36,79.12
20220519,23.56,1.41,85.79
20220520,22.9,0.59,79.21
20220521,24.32,0.86,75.53
20220522,24.86,0.04,76.69
20220523,26.02,0.0,75.71
20220524,26.88,0.01,72.98
20220525,26.95,0.63,71.48
20220526,25.63,0.49,76.27
20220527,25.35,0.19,75.37
20220528,25.37,0.06,74.21
20220529,25.08,0.12,69.78
20220530,25.61,6.04,72.8
20220531,24.63,4.33,78.53
20220601,24.52,0.14,77.0
20220602,25.73,0.05,73.09
20220603,25.42,2.56,74.37
20220604,25.19,3.91,75.8
20220605,26.06,5.09,73.62
20220606,24.78,6.23,79.19
20220607,25.36,1.29,75.89
20220608,24.98,0.06,75.74
20220609,25.59,0.05,71.57
20220610,25.39,0.09,72.4
20220611,25.26,0.1,69.3
20220612,24.43,0.89,69.73
20220613,24.71,1.28,73.32
20220614,25.12,8.65,76.55
20220615,23.79,24.45,81.83
20220616,23.52,10.96,83.7
20220617,22.79,34.89,82.4
20220618,22.91,3.5,85.8
20220619,23.83,11.84,84.98
20220620,23.84,4.79,78.38
20220621,23.85,2.03,81.28
20220622,23.52,0.52,82.79
20220623,24.05,0.04,79.09
20220624,23.16,0.04,81.56
20220625,23.56,0.35,78.82
20220626,23.76,0.02,78.38
20220627,24.37,0.0,76.16
20220628,24.7,0.05,76.46
20220629,24.85,2.31,78.39
20220630,24.19,3.56,81.03
20220701,23.83,1.67,82.75
20220702,23.67,0.59,82.46
20220703,24.18,0.09,80.4
20220704,23.74,0.56,79.09
20220705,23.25,0.85,81.23
20220706,23.44,0.96,79.53
20220707,23.03,5.05,82.02
20220708,23.42,1.56,78.87
20220709,23.32,3.39,83.02
20220710,23.95,0.95,77.94
20220711,24.13,1.78,77.51
20220712,23.78,0.7,77.0
20220713,23.86,1.02,75.51
20220714,23.5,0.52,74.44
20220715,24.04,0.17,75.53
20220716,24.32,14.07,79.5
20220717,24.1,2.94,78.69
20220718,23.17,5.3,80.77
20220719,23.74,0.48,80.64
20220720,25.01,20.85,79.14
20220721,24.15,10.76,83.45
20220722,23.29,14.69,85.72
20220723,23.57,0.1,81.2
20220724,23.48,0.03,81.1
20220725,23.99,1.87,79.48
20220726,23.61,7.18,81.15
20220727,23.41,8.63,85.66
20220728,24.47,1.62,79.25
20220729,24.08,6.77,78.46
20220730,25.16,11.82,74.43
20220731,24.46,12.33,84.31
20220801,24.38,31.18,84.17
20220802,24.28,15.03,83.04
20220803,22.66,23.3,85.71
20220804,22.48,14.81,89.69
20220805,23.33,2.94,83.21
20220806,22.99,2.87,83.23
20220807,22.9,2.91,84.76
20220808,23.15,1.34,83.75
20220809,23.26,0.52,79.68
20220810,22.81,0.16,80.28
20220811,23.33,0.36,81.19
20220812,23.55,0.11,81.04
20220813,22.82,0.0,82.24
20220814,23.72,0.0,78.33
20220815,24.43,0.0,78.32
20220816,25.58,0.0,72.9
20220817,24.86,0.37,79.35
20220818,23.81,153.05,84.89
20220819,23.95,29.2,83.59
20220820,23.53,0.01,83.91
20220821,23.69,5.24,84.49
20220822,23.71,2.73,84.54
20220823,23.83,1.62,83.38
20220824,23.21,7.54,85.48
20220825,23.07,18.04,85.38
20220826,22.79,36.54,89.28
20220827,22.67,14.81,89.28
20220828,23.22,17.18,86.27
20220829,23.38,26.06,89.83
20220830,23.98,1.4,87.8
20220831,22.88,4.66,90.96
20220901,23.44,3.65,84.41
20220902,23.66,5.8,85.72
20220903,24.91,5.17,82.8
20220904,23.97,34.2,89.67
20220905,24.28,18.75,86.79
20220906,23.59,21.97,84.98
20220907,22.97,9.0,88.5
20220908,22.74,4.5,88.74
20220909,23.09,0.39,88.89
20220910,23.03,1.63,87.18
20220911,22.48,0.1,87.95
20220912,22.71,0.0,86.01
20220913,23.11,1.51,87.03
20220914,23.4,3.64,86.59
20220915,22.58,0.46,87.45
20220916,23.16,0.01,86.52
20220917,22.96,0.04,86.93
20220918,23.49,0.19,84.74
20220919,23.21,0.02,86.63
20220920,22.32,0.0,82.17
20220921,22.89,0.02,83.98
20220922,22.92,0.0,81.8
20220923,21.81,0.0,85.69
20220924,23.14,1.67,83.74
20220925,23.73,1.99,81.25
20220926,24.0,2.21,84.91
20220927,22.28,1.51,88.53
20220928,23.33,1.39,84.33
20220929,22.56,1.06,86.88
20220930,21.93,7.22,89.45
20221001,22.06,3.95,87.55
20221002,22.44,0.5,85.26
20221003,22.74,0.01,85.83
20221004,22.62,0.05,88.63
20221005,22.71,11.53,88.96
20221006,22.81,0.5,84.26
20221007,22.9,0.27,84.72
20221008,22.0,2.58,86.21
20221009,22.98,10.38,87.94
20221010,23.77,25.54,88.84
20221011,23.54,7.53,88.98
20221012,23.89,3.25,86.65
20221013,23.92,15.44,86.85
20221014,24.14,9.44,85.15
20221015,23.74,19.26,87.35
20221016,23.84,20.93,87.94
20221017,23.92,6.75,89.19
20221018,22.84,6.7,90.77
20221019,22.93,17.76,86.88
20221020,23.6,15.61,85.55
20221021,23.07,2.12,87.43
20221022,23.04,1.1,86.27
20221023,22.25,0.02,83.85
20221024,20.28,0.0,77.24
20221025,20.14,0.0,71.15
20221026,20.7,0.0,70.04
20221027,20.5,0.02,76.34
20221028,21.89,0.9,85.68
20221029,22.53,2.73,87.59
20221030,22.5,0.3,86.17
20221031,21.37,0.01,87.9
20221101,21.32,9.63,91.26
20221102,20.9,6.59,88.71
20221103,21.13,6.95,85.49
20221104,21.31,3.41,87.08
20221105,21.34,1.32,84.12
20221106,21.34,0.76,88.73
20221107,21.21,0.08,82.77
20221108,21.98,0.0,87.23
20221109,22.39,0.0,83.97
20221110,22.32,1.92,83.98
20221111,20.71,13.67,89.59
20221112,21.0,15.46,92.12
20221113,21.39,3.7,89.64
20221114,21.62,1.06,88.34
20221115,22.01,0.86,88.16
20221116,21.67,0.0,86.26
20221117,19.89,0.0,77.97
20221118,18.8,0.0,74.11
20221119,18.86,0.0,78.76
20221120,18.46,0.0,75.85
20221121,18.25,0.01,83.45
20221122,20.97,1.73,87.92
20221123,22.08,7.29,87.47
20221124,22.2,3.19,88.38
20221125,22.03,0.81,86.89
20221126,22.14,0.13,86.12
20221127,22.57,0.38,85.19
20221128,22.85,0.49,85.97
20221129,22.24,0.28,85.1
20221130,19.83,0.01,79.66
20221201,21.44,0.89,88.22
20221202,22.44,0.38,86.19
20221203,22.22,0.06,85.99
20221204,21.77,0.15,87.92
20221205,21.32,0.28,87.62
20221206,21.45,0.0,84.79
20221207,19.95,0.0,80.78
20221208,18.16,0.14,78.37
20221209,18.25,3.53,84.4
20221210,19.69,26.52,92.85
20221211,21.24,9.05,93.61
20221212,21.82,21.9,91.57
20221213,21.81,9.26,90.06
20221214,21.44,1.24,87.45
20221215,20.75,0.04,80.51
20221216,19.79,0.0,76.48
20221217,20.43,0.0,84.22
20221218,21.18,0.0,86.92
20221219,19.02,0.0,83.34
20221220,19.87,0.0,82.64
20221221,19.36,0.0,75.77
20221222,18.66,0.0,76.52
20221223,20.12,0.0,84.01
20221224,21.31,0.01,83.28
20221225,21.87,6.28,87.56
20221226,21.78,1.57,88.0
20221227,21.71,0.86,88.04
20221228,22.0,0.1,86.41
20221229,21.42,0.0,82.75
20221230,20.13,0.0,78.85
20221231,19.67,0.0,72.87
20230101,19.08,0.0,76.93
20230102,19.1,0.0,81.43
20230103,19.5,0.0,81.67
20230104,19.82,0.0,81.44
20230105,19.42,0.0,80.76
20230106,19.46,0.0,82.32
20230107,19.97,0.0,81.67
20230108,20.25,0.0,80.55
20230109,19.06,0.0,72.77
20230110,17.4,0.0,75.53
20230111,18.01,0.0,71.83
20230112,18.68,0.0,66.12
20230113,19.06,0.0,70.93
20230114,18.67,0.0,68.87
20230115,18.61,0.0,69.82
20230116,19.07,0.0,69.25
20230117,18.76,0.0,72.18
20230118,18.87,0.0,74.05
20230119,18.92,0.0,70.75
20230120,19.07,0.0,78.78
20230121,20.22,0.0,75.92
20230122,19.78,0.0,71.3
20230123,20.93,0.11,78.9
20230124,21.69,0.44,77.11
20230125,20.51,0.05,72.93
20230126,20.04,0.0,71.71
20230127,19.74,0.0,68.34
20230128,19.3,0.0,65.98
20230129,19.97,0.0,69.9
20230130,21.75,0.0,76.14
20230131,22.17,0.0,69.38
20230201,22.4,0.0,65.36
20230202,22.05,0.0,64.31
20230203,22.82,0.05,68.67
20230204,23.17,0.97,66.18
20230205,22.97,0.0,60.9
20230206,22.19,0.0,64.22
20230207,22.01,0.0,63.42
20230208,22.68,0.0,63.25
20230209,22.5,0.0,62.05
20230210,22.72,0.0,61.37
20230211,22.48,0.0,57.67
20230212,23.23,0.0,52.58
20230213,22.71,0.0,50.74
20230214,22.43,0.0,54.52
20230215,22.64,0.0,52.65
20230216,22.39,0.0,55.84
20230217,22.09,0.0,58.34
20230218,22.22,0.0,59.74
20230219,22.74,0.0,59.42
20230220,23.05,0.0,54.63
20230221,23.28,0.0,52.04
20230222,23.2,0.0,52.67
20230223,22.05,0.0,53.61
20230224,22.52,0.0,49.51
20230225,23.18,0.0,43.62
20230226,23.02,0.0,46.12
20230227,22.15,0.0,51.13
20230228,22.64,0.0,54.66
20230301,24.89,0.0,59.06
20230302,23.07,0.0,47.35
20230303,22.84,0.0,46.49
20230304,23.46,0.0,41.82
20230305,24.05,0.0,39.37
20230306,23.88,0.0,40.02
20230307,24.1,0.0,41.01
20230308,24.42,0.0,45.48
20230309,24.15,0.0,46.91
20230310,24.68,0.0,45.25
20230311,25.21,0.0,47.6
20230312,25.18,0.0,50.44
20230313,26.04,0.0,50.58
20230314,26.65,0.0,42.63
20230315,27.24,0.0,45.9
20230316,27.1,0.2,55.93
20230317,25.49,10.91,66.75
20230318,25.67,5.94,69.28
20230319,26.23,4.69,64.96
20230320,26.3,1.43,58.66
20230321,26.28,0.01,44.07
20230322,26.08,0.0,45.72
20230323,28.13,0.66,47.16
20230324,27.47,2.73,58.4
20230325,26.39,3.95,67.99
20230326,27.0,1.14,63.07
20230327,27.2,0.58,60.83
20230328,28.71,0.17,51.43
20230329,28.5,1.41,55.01
20230330,28.58,0.66,52.38
20230331,29.11,0.0,46.23
20230401,28.54,0.55,50.83
20230402,28.56,0.78,53.65
20230403,28.88,0.46,49.33
20230404,27.24,5.75,61.65
20230405,27.88,0.73,58.49
20230406,28.27,0.09,50.52
20230407,27.86,0.0,50.93
20230408,27.6,0.0,49.59
20230409,27.91,0.0,46.11
20230410,28.27,0.0,48.02
20230411,28.37,0.0,36.96
20230412,27.89,0.0,33.03
20230413,29.4,0.0,25.77
20230414,28.69,0.0,28.39
20230415,29.48,0.0,28.4
20230416,28.68,0.0,33.93
20230417,29.06,0.0,32.01
20230418,29.39,0.0,35.42
20230419,29.81,0.0,35.53
20230420,31.24,0.0,36.12
20230421,31.72,0.26,38.24
20230422,30.76,3.06,45.71
20230423,29.33,2.45,54.04
20230424,28.3,0.6,55.34
20230425,28.14,1.56,52.98
20230426,28.29,0.04,54.12
20230427,28.94,0.01,51.56
20230428,29.61,0.03,46.94
20230429,28.54,9.3,57.93
20230430,27.52,3.06,65.55
20230501,25.04,17.3,78.08
20230502,25.88,6.14,73.96
20230503,25.76,1.46,74.18
20230504,25.64,7.15,73.07
20230505,23.93,30.33,81.14
20230506,23.86,6.84,84.48
20230507,24.65,16.41,82.81
20230508,24.51,8.79,83.49
20230509,26.48,0.65,74.75
20230510,27.32,0.2,69.06
20230511,27.57,0.34,68.0
20230512,28.19,3.51,67.81
20230513,27.87,0.0,67.2
20230514,28.12,0.0,67.0
20230515,28.82,0.25,65.15
20230516,29.64,0.28,57.67
20230517,30.24,0.66,51.06
20230518,29.74,0.09,57.31
20230519,27.62,0.16,67.32
20230520,28.4,2.08,65.33
20230521,28.05,12.26,70.31
20230522,27.95,3.46,67.9
20230523,27.77,2.06,66.12
20230524,26.38,1.22,71.47
20230525,27.48,2.06,68.48
20230526,27.1,5.11,69.34
20230527,28.51,0.41,63.06
20230528,28.07,0.11,63.66
20230529,28.43,0.09,62.64
20230530,27.11,7.64,70.41
20230531,26.66,8.16,70.22
20230601,26.92,4.06,68.9
20230602,27.26,1.3,64.81
20230603,28.7,0.03,63.81
20230604,28.49,0.07,65.28
20230605,26.63,0.03,72.23
20230606,27.44,1.22,67.93
20230607,27.59,0.91,67.12
20230608,26.72,0.34,70.32
20230609,27.11,4.16,66.95
20230610,26.82,0.09,65.44
20230611,27.24,0.02,64.87
20230612,26.82,12.64,71.48
20230613,27.25,0.48,68.6
20230614,26.71,0.87,69.4
20230615,27.89,0.07,64.85
20230616,28.22,0.01,63.08
20230617,27.23,0.02,67.03
20230618,25.7,0.24,72.69
20230619,25.6,1.76,72.02
20230620,25.26,7.63,75.92
20230621,25.09,13.52,76.28
20230622,26.61,15.54,67.93
20230623,25.23,7.92,69.47
20230624,24.14,0.1,78.22
20230625,24.51,0.77,79.21
20230626,24.64,0.1,68.91
20230627,25.1,0.45,68.92
20230628,25.53,0.02,65.62
20230629,25.79,5.72,68.47
20230630,25.7,0.22,66.11
20230701,25.37,1.41,67.5
20230702,24.45,1.3,75.06
20230703,24.63,3.23,77.13
20230704,24.11,5.66,79.5
20230705,23.63,1.23,77.45
20230706,23.89,0.31,73.95
20230707,24.53,1.96,75.81
20230708,24.77,2.28,73.76
20230709,25.35,1.15,72.41
20230710,24.99,5.56,76.07
20230711,25.12,10.65,69.76
20230712,24.52,7.24,70.65
20230713,24.66,6.92,71.79
20230714,25.09,0.21,72.44
20230715,25.21,0.52,71.88
20230716,25.8,0.04,72.78
20230717,25.35,0.01,74.38
20230718,26.1,0.01,69.31
20230719,25.36,0.09,70.69
20230720,25.43,0.01,68.93
20230721,24.94,0.04,74.21
20230722,25.1,1.45,70.23
20230723,24.87,3.23,73.87
20230724,23.65,7.41,80.22
20230725,22.75,10.56,82.82
20230726,23.77,3.11,78.7
20230727,23.62,0.04,75.77
20230728,25.1,0.2,71.02
20230729,25.66,0.05,70.23
20230730,26.16,0.0,68.31
20230731,26.37,0.0,68.84
20230801,25.97,0.0,69.28
20230802,25.64,0.0,68.9
20230803,26.16,0.0,68.1
20230804,26.14,0.19,69.01
20230805,26.52,0.0,67.03
20230806,26.44,0.3,69.2
20230807,26.86,0.32,65.8
20230808,26.51,0.02,66.77
20230809,26.72,7.87,68.29
20230810,25.41,12.06,76.01
20230811,25.71,5.67,75.41
20230812,25.2,0.96,74.55
20230813,25.81,0.09,69.86
20230814,26.12,0.01,67.59
20230815,25.96,0.24,67.8
20230816,26.88,0.17,66.16
20230817,26.93,0.0,64.85
20230818,25.97,0.0,67.11
20230819,25.94,2.1,68.46
20230820,26.71,0.27,67.12
20230821,27.18,0.11,64.15
20230822,26.79,0.89,68.56
20230823,26.79,0.57,67.08
20230824,27.0,0.12,64.07
20230825,27.31,0.0,63.08
20230826,26.19,2.76,69.84
20230827,26.05,8.44,73.15
20230828,26.47,0.37,66.76
20230829,26.62,1.4,67.08
20230830,26.93,9.89,69.91
20230831,25.11,23.88,77.37
20230901,23.96,30.08,87.03
20230902,24.08,10.62,83.17
20230903,23.86,2.58,81.17
20230904,23.04,0.38,78.98
20230905,23.88,10.32,80.31
20230906,23.62,3.14,81.11
20230907,23.3,3.81,78.14
20230908,23.89,0.53,76.61
20230909,24.54,2.98,76.85
20230910,24.48,0.66,79.18
20230911,23.99,1.73,79.87
20230912,24.17,2.54,78.04
20230913,24.88,2.91,73.62
20230914,24.82,1.16,74.61
20230915,23.68,0.17,75.84
20230916,24.63,9.07,77.34
20230917,24.91,15.1,79.23
20230918,24.84,11.79,79.36
20230919,25.07,4.54,78.92
20230920,24.04,11.56,82.9
20230921,22.87,21.23,86.82
20230922,24.62,1.34,83.06
20230923,24.36,1.3,85.81
20230924,23.51,12.18,87.62
20230925,22.75,2.05,87.87
20230926,24.26,4.51,81.9
20230927,24.2,1.85,78.06
20230928,22.87,2.48,85.41
20230929,23.29,0.61,83.78
20230930,23.21,1.68,77.99
20231001,23.64,0.35,81.42
20231002,23.94,1.04,79.9
20231003,24.23,0.0,76.07
20231004,24.54,0.08,74.33
20231005,24.34,0.19,80.5
20231006,24.4,0.9,78.3
20231007,24.93,6.79,79.12
20231008,25.78,1.96,72.87
20231009,25.09,10.8,83.14
20231010,24.67,14.85,87.27
20231011,23.19,7.52,91.0
20231012,23.78,0.25,80.62
20231013,23.39,0.31,73.09
20231014,23.36,2.19,78.23
20231015,24.12,3.7,79.6
20231016,23.65,17.53,86.61
20231017,23.89,0.49,82.45
20231018,23.66,0.57,80.8
20231019,23.79,0.05,75.54
20231020,24.08,0.04,77.83
20231021,24.21,0.03,77.89
20231022,24.8,0.01,73.86
20231023,24.37,0.0,65.55
20231024,23.82,0.0,57.52
20231025,24.18,0.0,69.53
20231026,24.0,0.0,69.39
20231027,24.22,0.0,72.2
20231028,24.45,0.03,76.18
20231029,23.83,2.31,81.67
20231030,22.37,5.17,87.31
20231031,22.78,1.27,82.24
20231101,24.11,0.49,75.75
20231102,24.64,0.2,78.49
20231103,24.92,1.83,77.24
20231104,23.67,10.49,83.73
20231105,23.33,2.57,84.23
20231106,23.0,14.29,83.97
20231107,22.99,19.88,90.15
20231108,23.65,2.51,84.74
20231109,22.22,4.6,84.47
20231110,22.54,1.2,82.94
20231111,22.82,0.0,75.29
20231112,21.75,0.0,77.47
20231113,22.33,0.06,79.09
20231114,21.51,1.01,77.92
20231115,22.81,0.03,79.4
20231116,23.98,0.0,74.06
20231117,24.36,0.0,75.13
20231118,24.65,0.0,72.92
20231119,24.08,0.0,73.33
20231120,23.84,0.0,75.57
20231121,24.39,0.25,79.52
20231122,24.26,6.95,84.73
20231123,23.48,2.16,80.62
20231124,23.86,2.23,82.27
20231125,23.8,1.47,81.65
20231126,23.35,1.04,79.31
20231127,23.94,0.6,77.16
20231128,24.19,0.45,77.22
20231129,23.67,2.41,79.84
20231130,23.3,1.39,80.49
20231201,23.86,0.33,77.01
20231202,24.13,2.45,75.78
20231203,24.01,3.11,82.16
20231204,23.83,1.91,77.62
20231205,24.67,0.27,69.4
20231206,24.69,0.15,70.37
20231207,25.27,1.0,74.78
20231208,23.79,1.14,85.03
20231209,23.13,0.84,81.14
20231210,24.08,0.28,71.5
20231211,23.67,0.13,71.97
20231212,23.33,0.09,71.06
20231213,22.45,0.0,69.44
20231214,21.83,0.0,68.46
20231215,22.98,0.24,75.95
20231216,24.15,0.65,77.16
20231217,23.01,0.41,77.45
20231218,22.54,0.17,76.88
20231219,22.2,0.03,70.38
20231220,22.59,0.0,70.27
20231221,23.28,0.04,73.54
20231222,23.77,0.0,68.96
20231223,20.82,0.0,67.39
20231224,21.67,0.0,72.63
20231225,23.33,0.09,71.98
20231226,21.85,0.01,66.07
20231227,21.79,0.0,66.49
20231228,22.66,0.01,72.82
20231229,23.25,0.04,72.19
20231230,22.82,0.06,67.62
20231231,21.82,0.0,67.43
